"2018-05-04T22:03:41.896234","emg","0","1","4","-3","-2","-4","0","0","2018-05-04T22:03:41.895027"
"2018-05-04T22:03:41.896609","emg","-1","-2","-4","-2","-2","-1","0","1","2018-05-04T22:03:41.895664"
"2018-05-04T22:03:41.897577","acc","677","-1897","401","gyro","-98","51","48","quat","11915","-7940","-6643","4392","2018-05-04T22:03:41.896915"
"2018-05-04T22:03:41.902328","emg","-1","-1","4","0","-3","-2","-3","-2","2018-05-04T22:03:41.901412"
"2018-05-04T22:03:41.902742","emg","1","0","-6","-1","1","-2","-1","0","2018-05-04T22:03:41.901856"
"2018-05-04T22:03:41.918223","emg","-1","0","6","0","-2","-1","-2","-2","2018-05-04T22:03:41.917142"
"2018-05-04T22:03:41.918648","emg","-1","-2","-2","-3","-1","-1","-2","-1","2018-05-04T22:03:41.917648"
"2018-05-04T22:03:41.919717","acc","671","-1932","408","gyro","-110","66","17","quat","11909","-7960","-6637","4382","2018-05-04T22:03:41.918929"
"2018-05-04T22:03:41.925145","emg","-1","-2","-4","-2","0","1","1","-1","2018-05-04T22:03:41.924042"
"2018-05-04T22:03:41.925589","emg","-2","-1","0","1","0","-2","0","-2","2018-05-04T22:03:41.924563"
"2018-05-04T22:03:41.932823","emg","-2","0","-2","-1","0","0","1","-1","2018-05-04T22:03:41.931559"
"2018-05-04T22:03:41.933280","emg","-2","-2","-2","0","-1","0","-1","-1","2018-05-04T22:03:41.932160"
"2018-05-04T22:03:41.940420","acc","687","-1965","406","gyro","-82","68","-23","quat","11907","-7973","-6634","4367","2018-05-04T22:03:41.939416"
"2018-05-04T22:03:41.947782","emg","-2","0","3","-2","-5","-5","-4","-3","2018-05-04T22:03:41.946746"
"2018-05-04T22:03:41.948124","emg","1","3","5","-3","-2","1","-1","-1","2018-05-04T22:03:41.947220"
"2018-05-04T22:03:41.956471","emg","0","-4","-2","4","5","7","4","2","2018-05-04T22:03:41.955475"
"2018-05-04T22:03:41.956799","emg","-2","1","3","0","-4","-4","-1","0","2018-05-04T22:03:41.955996"
"2018-05-04T22:03:41.957599","acc","677","-2025","389","gyro","-42","73","-24","quat","11906","-7985","-6628","4356","2018-05-04T22:03:41.957059"
"2018-05-04T22:03:41.962579","emg","-2","1","0","-4","-3","-8","-4","-2","2018-05-04T22:03:41.961558"
"2018-05-04T22:03:41.962906","emg","-1","-2","-5","-1","-5","-8","-5","-2","2018-05-04T22:03:41.962038"
"2018-05-04T22:03:41.978292","emg","2","1","-9","-2","1","12","7","0","2018-05-04T22:03:41.977155"
"2018-05-04T22:03:41.978700","emg","2","-2","-1","6","6","5","6","2","2018-05-04T22:03:41.977708"
"2018-05-04T22:03:41.986241","acc","708","-2001","385","gyro","-29","74","-12","quat","11907","-7994","-6623","4346","2018-05-04T22:03:41.985137"
"2018-05-04T22:03:41.987498","emg","-1","-1","5","2","-1","0","-2","-2","2018-05-04T22:03:41.986625"
"2018-05-04T22:03:41.987855","emg","-7","-6","2","4","1","-3","-4","-4","2018-05-04T22:03:41.987007"
"2018-05-04T22:03:41.992770","emg","10","12","8","-2","-7","-12","-7","-2","2018-05-04T22:03:41.991775"
"2018-05-04T22:03:41.993155","emg","15","16","-3","-9","1","9","9","8","2018-05-04T22:03:41.992267"
"2018-05-04T22:03:42.000715","acc","735","-2036","591","gyro","-94","-71","47","quat","11901","-7997","-6625","4354","2018-05-04T22:03:41.999578"
"2018-05-04T22:03:42.008289","emg","-5","-7","-6","2","-1","-7","-2","-1","2018-05-04T22:03:42.007193"
"2018-05-04T22:03:42.008651","emg","-14","-34","-6","4","7","4","-2","-6","2018-05-04T22:03:42.007693"
"2018-05-04T22:03:42.015474","emg","-12","-20","-22","-1","1","-2","-6","-10","2018-05-04T22:03:42.014304"
"2018-05-04T22:03:42.015843","emg","-4","9","9","-20","-15","-6","-6","-9","2018-05-04T22:03:42.014866"
"2018-05-04T22:03:42.023870","acc","726","-2270","702","gyro","-326","-292","390","quat","11846","-8042","-6630","4415","2018-05-04T22:03:42.022774"
"2018-05-04T22:03:42.024906","emg","11","15","12","32","18","12","-2","-3","2018-05-04T22:03:42.024085"
"2018-05-04T22:03:42.025260","emg","2","13","8","11","-1","-3","-7","-9","2018-05-04T22:03:42.024413"
"2018-05-04T22:03:42.038706","emg","7","-10","3","-21","-18","-11","44","50","2018-05-04T22:03:42.037516"
"2018-05-04T22:03:42.039086","emg","4","60","27","11","15","18","-5","-20","2018-05-04T22:03:42.038063"
"2018-05-04T22:03:42.040107","acc","652","-2534","665","gyro","31","-542","1105","quat","11761","-8089","-6584","4620","2018-05-04T22:03:42.039313"
"2018-05-04T22:03:42.045305","emg","22","96","22","-3","1","13","31","36","2018-05-04T22:03:42.044166"
"2018-05-04T22:03:42.045679","emg","4","-86","-46","-6","4","2","-27","-20","2018-05-04T22:03:42.044731"
"2018-05-04T22:03:42.053054","emg","-32","-84","-65","-27","-19","-27","-43","-46","2018-05-04T22:03:42.051794"
"2018-05-04T22:03:42.053420","emg","8","46","28","8","1","10","71","66","2018-05-04T22:03:42.052412"
"2018-05-04T22:03:42.060408","acc","216","-2609","789","gyro","181","-670","1682","quat","11643","-8153","-6501","4915","2018-05-04T22:03:42.059424"
"2018-05-04T22:03:42.067808","emg","5","12","12","-2","2","3","-18","-14","2018-05-04T22:03:42.066841"
"2018-05-04T22:03:42.068131","emg","-13","-35","-24","-22","-9","-1","18","3","2018-05-04T22:03:42.067331"
"2018-05-04T22:03:42.075111","emg","-28","-22","-2","6","4","-3","-4","-17","2018-05-04T22:03:42.074063"
"2018-05-04T22:03:42.075487","emg","6","-32","8","1","0","-12","-39","-19","2018-05-04T22:03:42.074580"
"2018-05-04T22:03:42.083573","acc","-232","-2346","717","gyro","37","-611","2192","quat","11481","-8272","-6365","5261","2018-05-04T22:03:42.082624"
"2018-05-04T22:03:42.084462","emg","-13","-109","-36","-16","-8","-10","-34","-37","2018-05-04T22:03:42.083765"
"2018-05-04T22:03:42.084772","emg","4","64","19","11","10","16","86","84","2018-05-04T22:03:42.084057"
"2018-05-04T22:03:42.098226","emg","-1","30","22","14","9","4","-8","1","2018-05-04T22:03:42.097158"
"2018-05-04T22:03:42.098673","emg","-4","28","4","4","-8","-6","-5","-1","2018-05-04T22:03:42.097648"
"2018-05-04T22:03:42.099746","acc","-583","-2336","878","gyro","47","-719","2136","quat","11308","-8375","-6238","5612","2018-05-04T22:03:42.098943"
"2018-05-04T22:03:42.105314","emg","25","53","21","12","7","4","-10","0","2018-05-04T22:03:42.104180"
"2018-05-04T22:03:42.105724","emg","21","36","-13","-25","-12","-14","-64","-50","2018-05-04T22:03:42.104724"
"2018-05-04T22:03:42.112824","emg","-1","-1","27","32","25","26","56","32","2018-05-04T22:03:42.111682"
"2018-05-04T22:03:42.113259","emg","52","-7","-1","17","7","7","30","69","2018-05-04T22:03:42.112182"
"2018-05-04T22:03:42.120657","acc","-794","-2673","945","gyro","-221","-870","2139","quat","11093","-8497","-6139","5958","2018-05-04T22:03:42.119564"
"2018-05-04T22:03:42.128066","emg","-8","-41","-39","-25","-18","-14","-31","-38","2018-05-04T22:03:42.126918"
"2018-05-04T22:03:42.128555","emg","-49","1","-15","-4","-7","-6","5","-21","2018-05-04T22:03:42.127458"
"2018-05-04T22:03:42.135371","emg","43","8","-9","4","9","9","5","43","2018-05-04T22:03:42.134202"
"2018-05-04T22:03:42.135791","emg","-53","-57","-38","-23","-16","-18","-53","-82","2018-05-04T22:03:42.134783"
"2018-05-04T22:03:42.143767","acc","-907","-2930","776","gyro","518","-1092","2301","quat","10908","-8523","-6002","6386","2018-05-04T22:03:42.142703"
"2018-05-04T22:03:42.144801","emg","14","-43","-38","-14","-11","-6","10","13","2018-05-04T22:03:42.143990"
"2018-05-04T22:03:42.145158","emg","-67","19","58","10","4","4","5","-42","2018-05-04T22:03:42.144315"
"2018-05-04T22:03:42.158787","emg","33","45","14","5","-4","-9","-17","1","2018-05-04T22:03:42.157592"
"2018-05-04T22:03:42.159192","emg","-44","-40","-21","-5","-4","-12","-33","-56","2018-05-04T22:03:42.158142"
"2018-05-04T22:03:42.160278","acc","-859","-2582","505","gyro","1155","-1189","2575","quat","10743","-8478","-5806","6887","2018-05-04T22:03:42.159474"
"2018-05-04T22:03:42.165273","emg","43","-1","9","-8","-3","3","46","72","2018-05-04T22:03:42.164152"
"2018-05-04T22:03:42.165642","emg","10","30","20","33","10","-4","-15","3","2018-05-04T22:03:42.164681"
"2018-05-04T22:03:42.172565","emg","3","4","-7","-14","-9","-1","-15","-18","2018-05-04T22:03:42.171454"
"2018-05-04T22:03:42.172936","emg","-18","-18","-6","-3","-1","2","5","-5","2018-05-04T22:03:42.171990"
"2018-05-04T22:03:42.180623","acc","-853","-2327","419","gyro","952","-1351","2456","quat","10547","-8427","-5651","7365","2018-05-04T22:03:42.179522"
"2018-05-04T22:03:42.188117","emg","-27","13","7","-13","-6","-3","-7","-4","2018-05-04T22:03:42.187004"
"2018-05-04T22:03:42.188487","emg","28","-4","-6","-10","-3","-2","-7","9","2018-05-04T22:03:42.187521"
"2018-05-04T22:03:42.195857","emg","-6","10","15","5","-2","0","17","13","2018-05-04T22:03:42.194710"
"2018-05-04T22:03:42.196228","emg","-11","-8","-9","0","-2","-11","-37","-48","2018-05-04T22:03:42.195212"
"2018-05-04T22:03:42.203197","acc","-995","-2046","337","gyro","783","-1696","2055","quat","10335","-8336","-5580","7810","2018-05-04T22:03:42.202236"
"2018-05-04T22:03:42.204329","emg","-40","0","-4","4","0","-3","-36","-46","2018-05-04T22:03:42.203506"
"2018-05-04T22:03:42.204687","emg","36","-4","-2","-7","3","13","72","71","2018-05-04T22:03:42.203843"
"2018-05-04T22:03:42.218521","emg","-26","3","5","-11","-6","1","-7","6","2018-05-04T22:03:42.217391"
"2018-05-04T22:03:42.218852","emg","2","0","-2","4","-1","-5","-17","-13","2018-05-04T22:03:42.217896"
"2018-05-04T22:03:42.219766","acc","-1052","-2048","16","gyro","507","-2140","1615","quat","10094","-8209","-5621","8219","2018-05-04T22:03:42.219102"
"2018-05-04T22:03:42.224937","emg","-13","-9","4","-3","6","7","28","24","2018-05-04T22:03:42.223945"
"2018-05-04T22:03:42.225255","emg","11","4","11","18","4","-6","-32","-12","2018-05-04T22:03:42.224429"
"2018-05-04T22:03:42.232430","emg","-14","5","-1","-9","-7","-5","6","-27","2018-05-04T22:03:42.231388"
"2018-05-04T22:03:42.232800","emg","43","8","2","-1","1","2","41","76","2018-05-04T22:03:42.231869"
"2018-05-04T22:03:42.240706","acc","-1003","-2038","-286","gyro","189","-2624","1121","quat","9828","-8040","-5786","8586","2018-05-04T22:03:42.239617"
"2018-05-04T22:03:42.247835","emg","-30","-1","0","4","2","-6","-29","-42","2018-05-04T22:03:42.246697"
"2018-05-04T22:03:42.248268","emg","5","2","-3","-5","3","6","26","23","2018-05-04T22:03:42.247246"
"2018-05-04T22:03:42.255636","emg","23","16","7","3","8","14","-5","-12","2018-05-04T22:03:42.254468"
"2018-05-04T22:03:42.256024","emg","-3","-14","1","-5","-2","6","6","17","2018-05-04T22:03:42.254978"
"2018-05-04T22:03:42.263915","acc","-860","-2141","-504","gyro","258","-2973","446","quat","9598","-7783","-6041","8902","2018-05-04T22:03:42.262819"
"2018-05-04T22:03:42.264935","emg","7","-5","-4","10","2","-3","15","13","2018-05-04T22:03:42.264123"
"2018-05-04T22:03:42.265298","emg","-4","-1","-11","-13","-9","-10","-34","-24","2018-05-04T22:03:42.264449"
"2018-05-04T22:03:42.278130","emg","-10","-10","-7","-4","-5","-7","-18","-19","2018-05-04T22:03:42.277186"
"2018-05-04T22:03:42.278535","emg","7","11","18","21","12","5","9","5","2018-05-04T22:03:42.277614"
"2018-05-04T22:03:42.279543","acc","-657","-2291","-663","gyro","390","-3237","-234","quat","9416","-7433","-6367","9165","2018-05-04T22:03:42.278853"
"2018-05-04T22:03:42.284958","emg","-22","0","-4","-4","-9","-16","-61","-51","2018-05-04T22:03:42.283916"
"2018-05-04T22:03:42.285277","emg","15","-1","1","-8","-5","6","37","39","2018-05-04T22:03:42.284434"
"2018-05-04T22:03:42.300929","emg","-16","-5","-6","0","0","-4","-22","-26","2018-05-04T22:03:42.299798"
"2018-05-04T22:03:42.301316","emg","-1","1","-4","-8","-2","-7","-41","-38","2018-05-04T22:03:42.300347"
"2018-05-04T22:03:42.302341","acc","-344","-2255","-753","gyro","946","-3503","-590","quat","9284","-6962","-6689","9435","2018-05-04T22:03:42.301575"
"2018-05-04T22:03:42.308131","emg","-6","1","3","4","8","18","56","24","2018-05-04T22:03:42.307018"
"2018-05-04T22:03:42.308501","emg","12","-6","-14","-8","-7","-7","-53","-9","2018-05-04T22:03:42.307535"
"2018-05-04T22:03:42.315162","emg","13","7","11","4","8","7","29","29","2018-05-04T22:03:42.313990"
"2018-05-04T22:03:42.315533","emg","-17","-14","-24","-12","-7","-9","-16","-5","2018-05-04T22:03:42.314565"
"2018-05-04T22:03:42.323935","acc","96","-2107","-713","gyro","1475","-3634","-729","quat","9185","-6397","-6975","9721","2018-05-04T22:03:42.322841"
"2018-05-04T22:03:42.324908","emg","25","6","-2","-7","-4","5","22","22","2018-05-04T22:03:42.324132"
"2018-05-04T22:03:42.325263","emg","-14","-8","-2","17","3","-6","-18","-26","2018-05-04T22:03:42.324457"
"2018-05-04T22:03:42.338911","emg","9","15","27","18","4","-2","-36","-13","2018-05-04T22:03:42.337696"
"2018-05-04T22:03:42.339283","emg","-43","-39","-44","-17","-9","3","43","-9","2018-05-04T22:03:42.338270"
"2018-05-04T22:03:42.340335","acc","492","-2239","-737","gyro","1580","-3612","-728","quat","9079","-5808","-7241","9992","2018-05-04T22:03:42.339536"
"2018-05-04T22:03:42.345258","emg","3","6","7","-1","1","-1","1","2","2018-05-04T22:03:42.344094"
"2018-05-04T22:03:42.345638","emg","32","12","0","-16","-2","7","-10","8","2018-05-04T22:03:42.344681"
"2018-05-04T22:03:42.352897","emg","-50","-28","-25","-1","-6","-17","-30","-58","2018-05-04T22:03:42.351749"
"2018-05-04T22:03:42.353362","emg","31","19","21","6","3","11","56","66","2018-05-04T22:03:42.352291"
"2018-05-04T22:03:42.360310","acc","841","-2167","-728","gyro","2083","-3331","-403","quat","8976","-5210","-7395","10297","2018-05-04T22:03:42.359226"
"2018-05-04T22:03:42.368096","emg","-43","-3","10","9","1","-10","-63","-79","2018-05-04T22:03:42.366969"
"2018-05-04T22:03:42.368471","emg","24","14","5","-6","-2","-2","21","39","2018-05-04T22:03:42.367492"
"2018-05-04T22:03:42.375536","emg","3","-8","-16","-18","-12","-10","-1","30","2018-05-04T22:03:42.374367"
"2018-05-04T22:03:42.375902","emg","10","7","12","15","10","10","3","20","2018-05-04T22:03:42.374946"
"2018-05-04T22:03:42.383573","acc","1157","-1730","-547","gyro","2296","-2961","140","quat","8843","-4658","-7445","10635","2018-05-04T22:03:42.382453"
"2018-05-04T22:03:42.384562","emg","-5","-9","-17","-9","-5","-3","-24","-2","2018-05-04T22:03:42.383773"
"2018-05-04T22:03:42.384921","emg","-8","8","22","13","3","-2","-43","-40","2018-05-04T22:03:42.384098"
"2018-05-04T22:03:42.398893","emg","27","9","-5","-6","3","13","51","41","2018-05-04T22:03:42.397618"
"2018-05-04T22:03:42.399552","emg","-49","-6","2","1","-5","-17","-3","-49","2018-05-04T22:03:42.398146"
"2018-05-04T22:03:42.400543","acc","1481","-1592","-270","gyro","1948","-2565","712","quat","8649","-4217","-7456","10966","2018-05-04T22:03:42.399657"
"2018-05-04T22:03:42.405665","emg","24","18","13","13","14","19","43","31","2018-05-04T22:03:42.404475"
"2018-05-04T22:03:42.406038","emg","-18","-25","-29","-23","-17","-17","-27","-47","2018-05-04T22:03:42.405064"
"2018-05-04T22:03:42.412391","emg","-48","2","11","10","2","-9","-41","-65","2018-05-04T22:03:42.411459"
"2018-05-04T22:03:42.412755","emg","78","23","10","16","18","36","85","96","2018-05-04T22:03:42.411880"
"2018-05-04T22:03:42.420729","acc","1509","-1595","-168","gyro","1427","-2276","1266","quat","8379","-3898","-7468","11281","2018-05-04T22:03:42.419622"
"2018-05-04T22:03:42.427375","emg","2","-11","-11","-4","-7","-15","-33","-32","2018-05-04T22:03:42.426473"
"2018-05-04T22:03:42.427735","emg","-36","-2","1","-11","-7","-1","24","65","2018-05-04T22:03:42.426874"
"2018-05-04T22:03:42.435724","emg","-69","-11","-14","-14","-6","12","49","9","2018-05-04T22:03:42.434470"
"2018-05-04T22:03:42.436093","emg","-53","9","10","2","0","-3","-63","-12","2018-05-04T22:03:42.435063"
"2018-05-04T22:03:42.443683","acc","1646","-1327","-30","gyro","699","-2334","2063","quat","7969","-3693","-7531","11601","2018-05-04T22:03:42.442625"
"2018-05-04T22:03:42.444713","emg","99","10","10","10","10","15","82","91","2018-05-04T22:03:42.443904"
"2018-05-04T22:03:42.445068","emg","45","0","3","5","5","-2","-26","1","2018-05-04T22:03:42.444237"
"2018-05-04T22:03:42.458347","emg","6","8","12","10","3","-9","-41","-27","2018-05-04T22:03:42.457337"
"2018-05-04T22:03:42.458926","emg","-7","-6","-4","-7","-6","-11","-14","-36","2018-05-04T22:03:42.457849"
"2018-05-04T22:03:42.460012","acc","1900","-959","748","gyro","784","-1788","2204","quat","7589","-3544","-7508","11912","2018-05-04T22:03:42.459154"
"2018-05-04T22:03:42.464800","emg","-3","4","7","-2","-5","3","-2","-2","2018-05-04T22:03:42.463856"
"2018-05-04T22:03:42.465131","emg","-65","-9","-12","-14","-11","-10","-26","-32","2018-05-04T22:03:42.464318"
"2018-05-04T22:03:42.472660","emg","25","-1","12","1","3","16","59","17","2018-05-04T22:03:42.471597"
"2018-05-04T22:03:42.472979","emg","20","-1","3","5","0","-7","-27","-25","2018-05-04T22:03:42.472113"
"2018-05-04T22:03:42.480608","acc","2773","-112","1340","gyro","851","-752","1070","quat","7555","-3222","-7442","12066","2018-05-04T22:03:42.479654"
"2018-05-04T22:03:42.487560","emg","-25","5","8","4","12","11","-15","-9","2018-05-04T22:03:42.486584"
"2018-05-04T22:03:42.487883","emg","14","7","3","16","10","19","9","-11","2018-05-04T22:03:42.487052"
"2018-05-04T22:03:42.494811","emg","53","1","1","15","14","14","-41","-2","2018-05-04T22:03:42.493849"
"2018-05-04T22:03:42.495146","emg","-42","5","3","-3","9","9","10","14","2018-05-04T22:03:42.494309"
"2018-05-04T22:03:42.503377","acc","1841","-521","971","gyro","-308","-76","-94","quat","7632","-3083","-7515","12008","2018-05-04T22:03:42.502354"
"2018-05-04T22:03:42.504332","emg","-17","-12","-23","-29","-26","-23","2","11","2018-05-04T22:03:42.503643"
"2018-05-04T22:03:42.504646","emg","-3","-5","-3","-7","-7","-11","4","-17","2018-05-04T22:03:42.503934"
"2018-05-04T22:03:42.518191","emg","13","2","-5","-6","-7","-12","-3","16","2018-05-04T22:03:42.517149"
"2018-05-04T22:03:42.518638","emg","9","-13","-12","-2","-6","-15","-46","-47","2018-05-04T22:03:42.517651"
"2018-05-04T22:03:42.519612","acc","1357","-1226","358","gyro","-755","-292","-367","quat","7665","-3005","-7715","11880","2018-05-04T22:03:42.518921"
"2018-05-04T22:03:42.524903","emg","24","-1","28","9","0","-4","-12","9","2018-05-04T22:03:42.523921"
"2018-05-04T22:03:42.525224","emg","-7","-5","11","3","4","9","45","22","2018-05-04T22:03:42.524406"
"2018-05-04T22:03:42.532700","emg","2","6","-8","-3","-5","-8","-18","-6","2018-05-04T22:03:42.531659"
"2018-05-04T22:03:42.533015","emg","2","-3","0","-2","-4","-2","-2","-5","2018-05-04T22:03:42.532163"
"2018-05-04T22:03:42.540542","acc","975","-1363","349","gyro","-1351","-155","-407","quat","7676","-3023","-7966","11701","2018-05-04T22:03:42.539417"
"2018-05-04T22:03:42.547806","emg","-13","-6","-10","-3","-1","-3","-4","-12","2018-05-04T22:03:42.546847"
"2018-05-04T22:03:42.548122","emg","9","2","-4","0","-2","4","8","2","2018-05-04T22:03:42.547307"
"2018-05-04T22:03:42.555174","emg","1","1","5","-3","-3","-5","-10","0","2018-05-04T22:03:42.554077"
"2018-05-04T22:03:42.555538","emg","14","1","-13","-8","-6","0","1","6","2018-05-04T22:03:42.554625"
"2018-05-04T22:03:42.563433","acc","764","-1853","468","gyro","-1810","124","-209","quat","7653","-3169","-8202","11513","2018-05-04T22:03:42.562338"
"2018-05-04T22:03:42.564463","emg","-13","-1","-10","-2","-5","-3","5","3","2018-05-04T22:03:42.563664"
"2018-05-04T22:03:42.564767","emg","-10","0","6","10","9","-4","-15","-32","2018-05-04T22:03:42.563999"
"2018-05-04T22:03:42.578841","emg","9","5","-1","-7","-2","-2","2","13","2018-05-04T22:03:42.577739"
"2018-05-04T22:03:42.579214","emg","12","-3","0","-8","-10","-6","-4","9","2018-05-04T22:03:42.578245"
"2018-05-04T22:03:42.580290","acc","659","-2181","583","gyro","-1470","551","-43","quat","7653","-3353","-8374","11335","2018-05-04T22:03:42.579513"
"2018-05-04T22:03:42.585272","emg","-40","-13","-5","-1","-4","-8","-21","-47","2018-05-04T22:03:42.584148"
"2018-05-04T22:03:42.585644","emg","7","5","8","5","3","4","4","9","2018-05-04T22:03:42.584661"
"2018-05-04T22:03:42.592897","emg","-14","-6","-4","-6","-2","-3","-10","-31","2018-05-04T22:03:42.591765"
"2018-05-04T22:03:42.593261","emg","6","1","0","-5","-6","-4","-1","0","2018-05-04T22:03:42.592295"
"2018-05-04T22:03:42.600444","acc","701","-2001","555","gyro","-903","926","-26","quat","7711","-3529","-8438","11195","2018-05-04T22:03:42.599356"
"2018-05-04T22:03:42.608044","emg","-3","0","-2","-4","-15","-12","-6","2","2018-05-04T22:03:42.606910"
"2018-05-04T22:03:42.608412","emg","3","-1","-1","9","23","14","8","-4","2018-05-04T22:03:42.607446"
"2018-05-04T22:03:42.615542","emg","3","-4","-10","-5","6","9","3","11","2018-05-04T22:03:42.614369"
"2018-05-04T22:03:42.615906","emg","11","2","0","-2","-2","-3","-4","6","2018-05-04T22:03:42.614924"
"2018-05-04T22:03:42.623873","acc","766","-1603","502","gyro","-859","1131","-12","quat","7797","-3711","-8473","11049","2018-05-04T22:03:42.622832"
"2018-05-04T22:03:42.624966","emg","-5","3","-3","-1","1","1","1","3","2018-05-04T22:03:42.624147"
"2018-05-04T22:03:42.625325","emg","-1","-3","-5","-7","-17","-13","-12","-12","2018-05-04T22:03:42.624490"
"2018-05-04T22:03:42.638765","emg","7","-1","1","4","1","0","-1","7","2018-05-04T22:03:42.637482"
"2018-05-04T22:03:42.639156","emg","-2","-3","1","-1","1","3","-1","-4","2018-05-04T22:03:42.638005"
"2018-05-04T22:03:42.640234","acc","888","-1448","462","gyro","-1184","1211","-36","quat","7887","-3915","-8540","10861","2018-05-04T22:03:42.639416"
"2018-05-04T22:03:42.644797","emg","5","1","0","2","3","5","8","9","2018-05-04T22:03:42.643888"
"2018-05-04T22:03:42.645153","emg","1","0","-1","1","0","-4","0","0","2018-05-04T22:03:42.644300"
"2018-05-04T22:03:42.661065","emg","-2","-3","-7","-7","-9","-3","-6","-3","2018-05-04T22:03:42.659963"
"2018-05-04T22:03:42.661436","emg","10","4","-3","0","8","9","7","11","2018-05-04T22:03:42.660464"
"2018-05-04T22:03:42.662520","acc","931","-1629","501","gyro","-1341","1391","5","quat","7981","-4155","-8605","10650","2018-05-04T22:03:42.661699"
"2018-05-04T22:03:42.667963","emg","-17","-5","-9","-3","-3","2","-1","-14","2018-05-04T22:03:42.666843"
"2018-05-04T22:03:42.668325","emg","6","16","0","0","5","6","0","-1","2018-05-04T22:03:42.667366"
"2018-05-04T22:03:42.675575","emg","-1","-15","1","-3","-5","-9","-5","0","2018-05-04T22:03:42.674433"
"2018-05-04T22:03:42.675939","emg","-13","-21","-11","-7","-7","-8","-8","-17","2018-05-04T22:03:42.674975"
"2018-05-04T22:03:42.683062","acc","990","-1783","445","gyro","-1274","1689","27","quat","8083","-4453","-8611","10446","2018-05-04T22:03:42.681955"
"2018-05-04T22:03:42.689905","emg","4","-7","-3","-1","3","4","5","10","2018-05-04T22:03:42.688904"
"2018-05-04T22:03:42.690270","emg","3","1","1","-2","-22","-20","-7","-2","2018-05-04T22:03:42.689397"
"2018-05-04T22:03:42.698771","emg","2","16","0","-3","33","7","-2","-3","2018-05-04T22:03:42.697603"
"2018-05-04T22:03:42.699142","emg","7","6","6","9","9","31","21","9","2018-05-04T22:03:42.698134"
"2018-05-04T22:03:42.700341","acc","1105","-1800","392","gyro","-1139","1954","-39","quat","8220","-4760","-8578","10229","2018-05-04T22:03:42.699419"
"2018-05-04T22:03:42.704881","emg","9","7","7","9","21","31","13","18","2018-05-04T22:03:42.703925"
"2018-05-04T22:03:42.705249","emg","-6","-4","-4","-9","-12","-8","-8","-10","2018-05-04T22:03:42.704341"
"2018-05-04T22:03:42.720383","emg","-2","-3","1","-3","-20","-11","-5","-7","2018-05-04T22:03:42.719534"
"2018-05-04T22:03:42.720694","emg","-4","-1","1","-3","-4","-15","-13","-10","2018-05-04T22:03:42.719966"
"2018-05-04T22:03:42.721820","acc","1298","-1813","229","gyro","-1011","2334","-5","quat","8391","-5095","-8493","9996","2018-05-04T22:03:42.721089"
"2018-05-04T22:03:42.727737","emg","2","3","-1","-2","-2","-9","-7","1","2018-05-04T22:03:42.726647"
"2018-05-04T22:03:42.728060","emg","2","0","0","-3","-7","2","1","2","2018-05-04T22:03:42.727222"
"2018-05-04T22:03:42.735367","emg","2","-2","-2","-5","-4","-5","0","3","2018-05-04T22:03:42.734300"
"2018-05-04T22:03:42.735760","emg","-1","3","2","-12","-3","-4","-1","-3","2018-05-04T22:03:42.734828"
"2018-05-04T22:03:42.742524","acc","1009","-1959","42","gyro","-700","2843","100","quat","8604","-5470","-8315","9765","2018-05-04T22:03:42.741532"
"2018-05-04T22:03:42.750266","emg","1","5","4","-5","-5","0","-5","0","2018-05-04T22:03:42.749253"
"2018-05-04T22:03:42.750664","emg","4","0","0","-17","-10","-8","-13","8","2018-05-04T22:03:42.749740"
"2018-05-04T22:03:42.758408","emg","5","3","-5","-15","-20","-16","-8","9","2018-05-04T22:03:42.757384"
"2018-05-04T22:03:42.758741","emg","7","2","-2","34","91","72","16","9","2018-05-04T22:03:42.757858"
"2018-05-04T22:03:42.759682","acc","1250","-2083","-152","gyro","-189","2886","1143","quat","8732","-5887","-8014","9659","2018-05-04T22:03:42.758988"
"2018-05-04T22:03:42.764612","emg","4","-1","-3","9","4","-6","0","0","2018-05-04T22:03:42.763789"
"2018-05-04T22:03:42.764924","emg","-7","-14","-17","1","2","-33","-10","-21","2018-05-04T22:03:42.764166"
"2018-05-04T22:03:42.780743","emg","-5","-7","-2","15","-31","-27","2","-9","2018-05-04T22:03:42.779628"
"2018-05-04T22:03:42.781122","emg","-7","-4","0","-6","-17","-17","8","-12","2018-05-04T22:03:42.780146"
"2018-05-04T22:03:42.782057","acc","342","-2132","-311","gyro","34","3219","696","quat","8930","-6288","-7670","9504","2018-05-04T22:03:42.781343"
"2018-05-04T22:03:42.787203","emg","-7","-13","-17","-16","-3","3","13","-3","2018-05-04T22:03:42.786353"
"2018-05-04T22:03:42.787516","emg","-12","-13","-8","20","-6","-16","-6","-7","2018-05-04T22:03:42.786766"
"2018-05-04T22:03:42.795382","emg","-19","-10","-1","11","-20","-46","-29","-18","2018-05-04T22:03:42.794300"
"2018-05-04T22:03:42.795754","emg","-4","1","7","4","-1","-2","-8","1","2018-05-04T22:03:42.794831"
"2018-05-04T22:03:42.803262","acc","-69","-2255","-332","gyro","20","2757","487","quat","9096","-6624","-7373","9352","2018-05-04T22:03:42.802142"
"2018-05-04T22:03:42.810565","emg","-9","-9","-16","-20","-11","3","-14","-2","2018-05-04T22:03:42.809347"
"2018-05-04T22:03:42.810938","emg","-11","-9","3","1","5","12","0","3","2018-05-04T22:03:42.809873"
"2018-05-04T22:03:42.818668","emg","3","8","8","29","39","42","1","0","2018-05-04T22:03:42.817553"
"2018-05-04T22:03:42.819040","emg","0","-11","6","28","-20","-49","-2","21","2018-05-04T22:03:42.818052"
"2018-05-04T22:03:42.820098","acc","-487","-2320","-460","gyro","-535","2186","179","quat","9196","-6933","-7203","9161","2018-05-04T22:03:42.819320"
"2018-05-04T22:03:42.825455","emg","-3","1","8","-33","-14","-11","0","-4","2018-05-04T22:03:42.824320"
"2018-05-04T22:03:42.825829","emg","8","10","7","2","33","62","34","15","2018-05-04T22:03:42.824846"
"2018-05-04T22:03:42.840834","emg","10","-7","-11","2","-14","2","3","2","2018-05-04T22:03:42.839723"
"2018-05-04T22:03:42.841208","emg","-5","-4","8","29","-8","-7","-14","-15","2018-05-04T22:03:42.840273"
"2018-05-04T22:03:42.842433","acc","-863","-2453","-306","gyro","-176","1695","94","quat","9286","-7151","-7042","9027","2018-05-04T22:03:42.841497"
"2018-05-04T22:03:42.856289","emg","5","8","3","-51","-13","-15","-4","-1","2018-05-04T22:03:42.855146"
"2018-05-04T22:03:42.856660","emg","-2","-2","-8","37","8","-11","-3","-11","2018-05-04T22:03:42.855687"
"2018-05-04T22:03:42.857633","emg","-5","1","10","-47","12","7","-17","-22","2018-05-04T22:03:42.856813"
"2018-05-04T22:03:42.857990","emg","-11","-20","-39","28","-36","-9","25","3","2018-05-04T22:03:42.857155"
"2018-05-04T22:03:42.863429","acc","-1391","-2455","27","gyro","508","1197","-161","quat","9350","-7311","-6837","8990","2018-05-04T22:03:42.862281"
"2018-05-04T22:03:42.870364","emg","6","-3","-6","-26","-8","-7","-3","5","2018-05-04T22:03:42.869208"
"2018-05-04T22:03:42.870820","emg","11","15","14","-17","23","29","20","14","2018-05-04T22:03:42.869751"
"2018-05-04T22:03:42.878724","emg","8","4","25","94","28","13","6","9","2018-05-04T22:03:42.877538"
"2018-05-04T22:03:42.879102","emg","1","8","-8","-64","-41","-30","-31","-22","2018-05-04T22:03:42.878112"
"2018-05-04T22:03:42.880145","acc","-1671","-2420","240","gyro","732","730","-444","quat","9421","-7383","-6655","8993","2018-05-04T22:03:42.879375"
"2018-05-04T22:03:42.885402","emg","3","-8","-15","23","15","11","17","22","2018-05-04T22:03:42.884148"
"2018-05-04T22:03:42.885826","emg","3","1","20","30","20","15","9","-1","2018-05-04T22:03:42.884758"
"2018-05-04T22:03:42.900950","emg","-4","6","-4","-31","-8","8","10","8","2018-05-04T22:03:42.899786"
"2018-05-04T22:03:42.901317","emg","26","13","14","-6","-6","-9","-7","21","2018-05-04T22:03:42.900381"
"2018-05-04T22:03:42.902548","acc","-1777","-2265","644","gyro","1147","521","-873","quat","9566","-7344","-6460","9014","2018-05-04T22:03:42.901678"
"2018-05-04T22:03:42.908643","emg","2","2","-32","-15","-1","15","14","13","2018-05-04T22:03:42.907252"
"2018-05-04T22:03:42.909229","emg","-28","-1","23","12","9","-4","-18","-40","2018-05-04T22:03:42.907924"
"2018-05-04T22:03:42.915041","emg","-13","-9","-1","27","-2","-9","-5","-7","2018-05-04T22:03:42.913971"
"2018-05-04T22:03:42.915412","emg","-7","-4","-20","-9","7","4","-5","-8","2018-05-04T22:03:42.914478"
"2018-05-04T22:03:42.922186","acc","-1700","-1932","777","gyro","1718","517","-1305","quat","9850","-7142","-6314","8974","2018-05-04T22:03:42.921415"
"2018-05-04T22:03:42.930123","emg","1","0","2","-4","-30","-13","-9","-2","2018-05-04T22:03:42.929080"
"2018-05-04T22:03:42.930514","emg","5","-13","-17","-42","-30","-17","-3","7","2018-05-04T22:03:42.929575"
"2018-05-04T22:03:42.938347","emg","4","16","45","59","45","20","23","15","2018-05-04T22:03:42.937332"
"2018-05-04T22:03:42.938716","emg","-15","-11","-44","-90","-15","-3","-24","-28","2018-05-04T22:03:42.937869"
"2018-05-04T22:03:42.939793","acc","-1262","-1722","1179","gyro","1819","526","-1066","quat","10123","-6932","-6135","8958","2018-05-04T22:03:42.939053"
"2018-05-04T22:03:42.944958","emg","-18","-11","-7","47","1","-18","-21","-31","2018-05-04T22:03:42.943893"
"2018-05-04T22:03:42.945277","emg","53","24","21","-18","4","11","41","62","2018-05-04T22:03:42.944404"
"2018-05-04T22:03:42.960806","emg","-41","-11","-8","-18","-5","4","-54","-85","2018-05-04T22:03:42.959711"
"2018-05-04T22:03:42.961171","emg","-1","2","2","7","2","1","72","81","2018-05-04T22:03:42.960262"
"2018-05-04T22:03:42.962304","acc","-972","-1884","1343","gyro","1384","477","-624","quat","10305","-6805","-5907","9002","2018-05-04T22:03:42.961542"
"2018-05-04T22:03:42.968158","emg","-15","-1","16","19","18","5","3","-11","2018-05-04T22:03:42.967037"
"2018-05-04T22:03:42.968570","emg","0","-5","-15","16","-22","-20","-24","-18","2018-05-04T22:03:42.967616"
"2018-05-04T22:03:42.975582","emg","18","-8","-26","-54","-14","1","15","26","2018-05-04T22:03:42.974434"
"2018-05-04T22:03:42.975947","emg","-18","-8","8","18","4","-7","-42","-62","2018-05-04T22:03:42.975040"
"2018-05-04T22:03:42.983209","acc","-989","-2255","1200","gyro","855","302","247","quat","10336","-6795","-5703","9105","2018-05-04T22:03:42.982037"
"2018-05-04T22:03:42.990493","emg","-5","7","14","-21","1","-2","-8","-14","2018-05-04T22:03:42.989310"
"2018-05-04T22:03:42.990983","emg","11","22","36","15","-7","-6","4","17","2018-05-04T22:03:42.989901"
"2018-05-04T22:03:42.997975","acc","-1052","-1921","1206","gyro","670","-170","818","quat","10270","-6787","-5520","9296","2018-05-04T22:03:42.997087"
"2018-05-04T22:03:42.999119","emg","3","-29","-53","2","-5","-12","-4","12","2018-05-04T22:03:42.998228"
"2018-05-04T22:03:42.999478","emg","-20","-10","-7","-17","-11","-9","-27","-30","2018-05-04T22:03:42.998679"
"2018-05-04T22:03:43.005250","emg","12","15","8","-45","12","31","42","23","2018-05-04T22:03:43.004249"
"2018-05-04T22:03:43.005569","emg","-64","-21","5","53","5","-16","-24","-69","2018-05-04T22:03:43.004770"
"2018-05-04T22:03:43.020787","acc","-823","-2022","1290","gyro","529","-410","866","quat","10181","-6758","-5392","9489","2018-05-04T22:03:43.019678"
"2018-05-04T22:03:43.021859","emg","56","5","-28","-22","-12","-7","8","79","2018-05-04T22:03:43.021029"
"2018-05-04T22:03:43.022212","emg","-2","-2","1","9","3","-2","-21","-22","2018-05-04T22:03:43.021436"
"2018-05-04T22:03:43.027424","emg","-9","5","9","5","-1","4","7","-26","2018-05-04T22:03:43.026420"
"2018-05-04T22:03:43.027755","emg","19","-23","-46","-43","-35","-15","-15","39","2018-05-04T22:03:43.026901"
"2018-05-04T22:03:43.043727","acc","-315","-2148","1257","gyro","855","-377","867","quat","10131","-6672","-5267","9670","2018-05-04T22:03:43.042666"
"2018-05-04T22:03:43.044576","emg","-28","12","29","-6","7","4","16","-10","2018-05-04T22:03:43.043894"
"2018-05-04T22:03:43.044863","emg","18","0","-11","-10","18","18","12","8","2018-05-04T22:03:43.044264"
"2018-05-04T22:03:43.050083","emg","-9","-2","9","61","9","-19","-33","-20","2018-05-04T22:03:43.048986"
"2018-05-04T22:03:43.050423","emg","-7","-4","-2","12","34","22","8","-13","2018-05-04T22:03:43.049578"
"2018-05-04T22:03:43.058713","acc","68","-2066","1383","gyro","1105","58","861","quat","10141","-6575","-5090","9821","2018-05-04T22:03:43.057595"
"2018-05-04T22:03:43.059648","emg","-13","-3","-2","-36","-45","-10","3","-9","2018-05-04T22:03:43.058896"
"2018-05-04T22:03:43.059954","emg","23","-3","18","15","13","2","2","17","2018-05-04T22:03:43.059250"
"2018-05-04T22:03:43.064915","emg","5","1","-6","3","5","-7","-33","-24","2018-05-04T22:03:43.063891"
"2018-05-04T22:03:43.065258","emg","-5","1","6","-6","4","9","39","29","2018-05-04T22:03:43.064458"
"2018-05-04T22:03:43.081043","acc","42","-1913","1458","gyro","1091","479","833","quat","10176","-6516","-4864","9938","2018-05-04T22:03:43.079879"
"2018-05-04T22:03:43.082110","emg","11","-7","-10","-8","-14","-12","-31","-8","2018-05-04T22:03:43.081271"
"2018-05-04T22:03:43.082489","emg","-11","10","11","2","1","10","37","7","2018-05-04T22:03:43.081679"
"2018-05-04T22:03:43.087750","emg","0","-8","-15","6","2","-5","-8","9","2018-05-04T22:03:43.086514"
"2018-05-04T22:03:43.088165","emg","-4","-4","-12","-19","-12","-7","-30","-20","2018-05-04T22:03:43.087135"
"2018-05-04T22:03:43.103968","acc","-37","-2086","1540","gyro","1073","782","1056","quat","10195","-6506","-4595","10052","2018-05-04T22:03:43.102813"
"2018-05-04T22:03:43.105023","emg","14","17","16","4","14","5","10","21","2018-05-04T22:03:43.104191"
"2018-05-04T22:03:43.105492","emg","-7","1","7","6","1","4","-9","-3","2018-05-04T22:03:43.104597"
"2018-05-04T22:03:43.110617","emg","-18","-15","-1","10","-18","-15","-13","-1","2018-05-04T22:03:43.109343"
"2018-05-04T22:03:43.110986","emg","14","6","-16","-35","-8","4","2","11","2018-05-04T22:03:43.109951"
"2018-05-04T22:03:43.118894","acc","757","-2193","1562","gyro","1010","1084","1157","quat","10238","-6497","-4354","10121","2018-05-04T22:03:43.117702"
"2018-05-04T22:03:43.119993","emg","-16","6","-1","-33","-13","6","10","-17","2018-05-04T22:03:43.119138"
"2018-05-04T22:03:43.120354","emg","0","4","14","48","36","-5","-17","-11","2018-05-04T22:03:43.119560"
"2018-05-04T22:03:43.125194","emg","21","8","16","37","10","19","36","14","2018-05-04T22:03:43.124031"
"2018-05-04T22:03:43.125737","emg","-6","-8","-16","-3","-11","-7","-12","-24","2018-05-04T22:03:43.124644"
"2018-05-04T22:03:43.141091","acc","-361","-1594","1668","gyro","1553","1428","1032","quat","10314","-6495","-3930","10218","2018-05-04T22:03:43.139920"
"2018-05-04T22:03:43.142155","emg","4","-2","-8","-21","-1","3","9","-3","2018-05-04T22:03:43.141325"
"2018-05-04T22:03:43.142556","emg","10","13","20","22","16","8","8","7","2018-05-04T22:03:43.141729"
"2018-05-04T22:03:43.148058","emg","6","0","-26","-76","-55","-8","5","12","2018-05-04T22:03:43.146936"
"2018-05-04T22:03:43.148435","emg","-5","-5","5","46","20","-5","1","-8","2018-05-04T22:03:43.147513"
"2018-05-04T22:03:43.163952","acc","-881","-1931","1674","gyro","995","1123","1230","quat","10288","-6561","-3577","10331","2018-05-04T22:03:43.162769"
"2018-05-04T22:03:43.165017","emg","-5","-3","6","-2","-7","-4","-1","-7","2018-05-04T22:03:43.164176"
"2018-05-04T22:03:43.165367","emg","2","-3","2","-28","-16","-2","-1","2","2018-05-04T22:03:43.164575"
"2018-05-04T22:03:43.170783","emg","-6","5","-13","24","18","-1","-11","-3","2018-05-04T22:03:43.169588"
"2018-05-04T22:03:43.171157","emg","0","-3","-1","-9","-6","-4","-11","0","2018-05-04T22:03:43.170195"
"2018-05-04T22:03:43.178172","acc","-695","-2015","1563","gyro","1300","1102","1108","quat","10296","-6583","-3228","10424","2018-05-04T22:03:43.177231"
"2018-05-04T22:03:43.179364","emg","-3","-1","-3","-3","4","3","-3","-8","2018-05-04T22:03:43.178526"
"2018-05-04T22:03:43.179725","emg","-12","8","27","32","9","1","-17","-27","2018-05-04T22:03:43.178935"
"2018-05-04T22:03:43.185216","emg","5","-10","-28","-23","-11","3","35","42","2018-05-04T22:03:43.184138"
"2018-05-04T22:03:43.185535","emg","11","0","-18","-9","11","2","3","29","2018-05-04T22:03:43.184710"
"2018-05-04T22:03:43.200963","acc","-545","-1725","1465","gyro","1564","1184","1195","quat","10317","-6574","-2841","10522","2018-05-04T22:03:43.199840"
"2018-05-04T22:03:43.201993","emg","9","-6","4","12","11","-1","-2","-3","2018-05-04T22:03:43.201161"
"2018-05-04T22:03:43.202349","emg","-12","3","-24","-13","-10","1","2","-3","2018-05-04T22:03:43.201506"
"2018-05-04T22:03:43.208190","emg","-5","-2","26","46","29","-1","-14","-20","2018-05-04T22:03:43.207033"
"2018-05-04T22:03:43.208555","emg","-5","2","6","-49","-49","-8","0","-6","2018-05-04T22:03:43.207550"
"2018-05-04T22:03:43.223921","acc","-492","-1913","1408","gyro","1458","1112","1176","quat","10325","-6572","-2497","10602","2018-05-04T22:03:43.222832"
"2018-05-04T22:03:43.224982","emg","-4","-3","0","23","24","5","6","0","2018-05-04T22:03:43.224145"
"2018-05-04T22:03:43.225338","emg","3","0","-18","-69","-41","-3","2","4","2018-05-04T22:03:43.224494"
"2018-05-04T22:03:43.230535","emg","5","0","28","67","39","-1","1","1","2018-05-04T22:03:43.229218"
"2018-05-04T22:03:43.230920","emg","-6","-1","-8","-4","7","-2","-5","-6","2018-05-04T22:03:43.229767"
"2018-05-04T22:03:43.238745","acc","-751","-1643","1398","gyro","2000","1201","1163","quat","10362","-6516","-2050","10695","2018-05-04T22:03:43.237644"
"2018-05-04T22:03:43.239856","emg","-3","-4","-16","-8","-4","-1","0","3","2018-05-04T22:03:43.239007"
"2018-05-04T22:03:43.240211","emg","7","1","-7","14","6","5","10","5","2018-05-04T22:03:43.239371"
"2018-05-04T22:03:43.245684","emg","-3","4","20","-8","-3","1","4","1","2018-05-04T22:03:43.244381"
"2018-05-04T22:03:43.246153","emg","9","-2","-4","4","5","0","-1","-2","2018-05-04T22:03:43.245033"
"2018-05-04T22:03:43.261002","acc","-756","-1593","1277","gyro","1961","1303","1095","quat","10399","-6472","-1601","10763","2018-05-04T22:03:43.259875"
"2018-05-04T22:03:43.262038","emg","-14","-8","-3","-7","-18","-7","-22","-28","2018-05-04T22:03:43.261198"
"2018-05-04T22:03:43.262421","emg","23","0","-4","2","5","3","33","40","2018-05-04T22:03:43.261544"
"2018-05-04T22:03:43.268084","emg","-28","-18","-1","-12","-3","2","-10","-15","2018-05-04T22:03:43.266854"
"2018-05-04T22:03:43.268461","emg","4","9","17","0","0","-2","7","6","2018-05-04T22:03:43.267364"
"2018-05-04T22:03:43.283915","acc","-932","-1463","1231","gyro","1794","1371","813","quat","10449","-6447","-1180","10784","2018-05-04T22:03:43.282819"
"2018-05-04T22:03:43.284945","emg","2","1","2","8","1","-7","-2","1","2018-05-04T22:03:43.284157"
"2018-05-04T22:03:43.285304","emg","6","-3","8","11","6","-2","-11","0","2018-05-04T22:03:43.284502"
"2018-05-04T22:03:43.290122","emg","1","-3","-16","-11","-6","1","-10","-10","2018-05-04T22:03:43.289022"
"2018-05-04T22:03:43.290544","emg","-1","-2","-13","-17","-4","-3","-10","-3","2018-05-04T22:03:43.289538"
"2018-05-04T22:03:43.298891","acc","-792","-1438","1249","gyro","1653","1358","749","quat","10492","-6430","-784","10788","2018-05-04T22:03:43.297751"
"2018-05-04T22:03:43.299991","emg","3","6","2","12","22","17","18","9","2018-05-04T22:03:43.299146"
"2018-05-04T22:03:43.300348","emg","-18","-14","-10","-13","-34","-21","-17","-19","2018-05-04T22:03:43.299498"
"2018-05-04T22:03:43.305262","emg","7","-3","-9","-20","-10","-6","1","4","2018-05-04T22:03:43.304102"
"2018-05-04T22:03:43.305628","emg","-9","-4","-7","-20","-4","4","-1","-11","2018-05-04T22:03:43.304659"
"2018-05-04T22:03:43.320969","acc","-636","-1303","1083","gyro","1458","1313","594","quat","10539","-6435","-456","10759","2018-05-04T22:03:43.319851"
"2018-05-04T22:03:43.322077","emg","-14","-7","12","36","12","-9","-7","-6","2018-05-04T22:03:43.321166"
"2018-05-04T22:03:43.322457","emg","0","3","-3","6","5","2","-4","-5","2018-05-04T22:03:43.321574"
"2018-05-04T22:03:43.328146","emg","6","8","-9","-25","-10","1","-7","4","2018-05-04T22:03:43.327015"
"2018-05-04T22:03:43.328512","emg","-1","-27","9","8","-13","0","6","3","2018-05-04T22:03:43.327546"
"2018-05-04T22:03:43.343948","acc","-493","-1280","1007","gyro","1131","1268","617","quat","10561","-6466","-182","10726","2018-05-04T22:03:43.342847"
"2018-05-04T22:03:43.344969","emg","5","2","-15","-30","-17","3","5","5","2018-05-04T22:03:43.344135"
"2018-05-04T22:03:43.345326","emg","-9","-1","18","22","14","1","-2","-6","2018-05-04T22:03:43.344482"
"2018-05-04T22:03:43.350710","emg","4","2","8","2","3","-4","-3","3","2018-05-04T22:03:43.349560"
"2018-05-04T22:03:43.351095","emg","-2","12","13","2","1","-4","-3","-3","2018-05-04T22:03:43.350091"
"2018-05-04T22:03:43.358925","acc","-402","-1167","927","gyro","1057","1241","619","quat","10577","-6497","78","10693","2018-05-04T22:03:43.357798"
"2018-05-04T22:03:43.359994","emg","1","-4","-9","-4","2","4","8","6","2018-05-04T22:03:43.359137"
"2018-05-04T22:03:43.360350","emg","-8","-9","-7","-1","-5","-8","-11","-5","2018-05-04T22:03:43.359495"
"2018-05-04T22:03:43.365238","emg","8","3","0","-13","0","4","6","2","2018-05-04T22:03:43.364106"
"2018-05-04T22:03:43.365603","emg","-6","-4","0","51","17","-7","-7","-5","2018-05-04T22:03:43.364641"
"2018-05-04T22:03:43.380941","acc","-346","-1072","850","gyro","897","1153","510","quat","10593","-6533","302","10651","2018-05-04T22:03:43.379849"
"2018-05-04T22:03:43.381991","emg","-2","-2","-4","-23","-18","-3","7","0","2018-05-04T22:03:43.381160"
"2018-05-04T22:03:43.382344","emg","-1","4","0","-15","2","4","-2","-6","2018-05-04T22:03:43.381503"
"2018-05-04T22:03:43.388095","emg","0","2","0","-1","-5","-3","-8","-7","2018-05-04T22:03:43.386953"
"2018-05-04T22:03:43.388458","emg","2","1","-8","0","8","5","16","11","2018-05-04T22:03:43.387488"
"2018-05-04T22:03:43.403916","acc","-262","-1011","820","gyro","856","1049","376","quat","10622","-6556","497","10600","2018-05-04T22:03:43.402819"
"2018-05-04T22:03:43.404962","emg","0","3","3","6","5","-1","-5","1","2018-05-04T22:03:43.404141"
"2018-05-04T22:03:43.405322","emg","-2","6","-23","-19","-9","-1","-5","-3","2018-05-04T22:03:43.404485"
"2018-05-04T22:03:43.410647","emg","2","1","-1","-10","-7","2","2","2","2018-05-04T22:03:43.409355"
"2018-05-04T22:03:43.411020","emg","1","0","12","38","23","-5","-9","-4","2018-05-04T22:03:43.409947"
"2018-05-04T22:03:43.418576","acc","-186","-921","780","gyro","855","930","289","quat","10662","-6561","671","10547","2018-05-04T22:03:43.417265"
"2018-05-04T22:03:43.420075","emg","-5","-5","-12","-18","-7","-3","0","-1","2018-05-04T22:03:43.419092"
"2018-05-04T22:03:43.420548","emg","-8","-2","-2","-13","-14","0","6","-2","2018-05-04T22:03:43.419570"
"2018-05-04T22:03:43.425330","emg","2","2","5","17","7","1","6","1","2018-05-04T22:03:43.424099"
"2018-05-04T22:03:43.425717","emg","-1","6","-9","-12","5","8","8","-1","2018-05-04T22:03:43.424676"
"2018-05-04T22:03:43.441135","acc","-176","-747","698","gyro","741","772","176","quat","10705","-6557","816","10496","2018-05-04T22:03:43.439901"
"2018-05-04T22:03:43.442468","emg","2","5","-3","0","-7","-8","-2","1","2018-05-04T22:03:43.441574"
"2018-05-04T22:03:43.442875","emg","5","3","13","-27","4","13","5","5","2018-05-04T22:03:43.441939"
"2018-05-04T22:03:43.448209","emg","-6","-6","-2","48","-9","-21","-6","-6","2018-05-04T22:03:43.447036"
"2018-05-04T22:03:43.448611","emg","8","3","1","-20","-12","-5","-4","2","2018-05-04T22:03:43.447556"
"2018-05-04T22:03:43.464013","acc","-67","-602","613","gyro","483","570","38","quat","10746","-6556","900","10448","2018-05-04T22:03:43.462768"
"2018-05-04T22:03:43.465295","emg","-7","-1","5","6","8","5","3","-2","2018-05-04T22:03:43.464454"
"2018-05-04T22:03:43.465696","emg","0","4","9","-31","-5","5","4","-3","2018-05-04T22:03:43.464812"
"2018-05-04T22:03:43.470578","emg","-9","-10","11","78","50","4","-7","-7","2018-05-04T22:03:43.469312"
"2018-05-04T22:03:43.470986","emg","-7","-5","-22","-40","-44","-12","-10","-8","2018-05-04T22:03:43.469854"
"2018-05-04T22:03:43.478592","acc","53","-568","513","gyro","123","423","-142","quat","10785","-6582","910","10391","2018-05-04T22:03:43.477339"
"2018-05-04T22:03:43.479886","emg","26","11","15","2","2","1","3","11","2018-05-04T22:03:43.479030"
"2018-05-04T22:03:43.480293","emg","-15","-7","0","12","2","-6","-10","-4","2018-05-04T22:03:43.479399"
"2018-05-04T22:03:43.485245","emg","3","7","3","-25","-2","7","7","3","2018-05-04T22:03:43.484060"
"2018-05-04T22:03:43.485630","emg","-5","-2","2","13","9","4","1","-4","2018-05-04T22:03:43.484598"
"2018-05-04T22:03:43.500803","acc","78","-635","459","gyro","-133","247","-330","quat","10828","-6625","852","10323","2018-05-04T22:03:43.499711"
"2018-05-04T22:03:43.501940","emg","-2","-1","-1","5","5","1","-2","0","2018-05-04T22:03:43.501200"
"2018-05-04T22:03:43.502287","emg","4","-8","-6","1","-8","-6","-3","2","2018-05-04T22:03:43.501525"
"2018-05-04T22:03:43.507920","emg","1","-2","-2","-10","-10","-6","-4","-2","2018-05-04T22:03:43.506849"
"2018-05-04T22:03:43.508269","emg","-6","-4","-4","-1","-1","-1","-5","-9","2018-05-04T22:03:43.507344"
"2018-05-04T22:03:43.523971","acc","24","-644","466","gyro","-217","53","-508","quat","10885","-6659","752","10249","2018-05-04T22:03:43.522765"
"2018-05-04T22:03:43.525272","emg","-5","-6","-3","-11","-7","2","0","-2","2018-05-04T22:03:43.524429"
"2018-05-04T22:03:43.525668","emg","2","1","4","24","15","-1","1","0","2018-05-04T22:03:43.524793"
"2018-05-04T22:03:43.530559","emg","-3","-1","-1","-14","-14","3","1","0","2018-05-04T22:03:43.529311"
"2018-05-04T22:03:43.530961","emg","-2","-3","-11","-18","-15","-10","-11","-5","2018-05-04T22:03:43.529844"
"2018-05-04T22:03:43.538995","acc","-33","-700","456","gyro","-370","-183","-721","quat","10954","-6690","593","10165","2018-05-04T22:03:43.537754"
"2018-05-04T22:03:43.540298","emg","-1","0","9","7","4","-1","-2","-1","2018-05-04T22:03:43.539445"
"2018-05-04T22:03:43.540702","emg","-1","-2","2","7","-6","-8","-6","-3","2018-05-04T22:03:43.539811"
"2018-05-04T22:03:43.545271","emg","-1","-1","-5","-5","3","-11","-12","-4","2018-05-04T22:03:43.544076"
"2018-05-04T22:03:43.545656","emg","4","4","0","4","19","25","19","9","2018-05-04T22:03:43.544617"
"2018-05-04T22:03:43.561050","acc","-44","-769","391","gyro","-618","-397","-1062","quat","11039","-6736","354","10053","2018-05-04T22:03:43.559838"
"2018-05-04T22:03:43.562333","emg","-1","5","9","12","-5","-7","-2","-1","2018-05-04T22:03:43.561483"
"2018-05-04T22:03:43.562804","emg","1","-4","1","2","-2","-10","-4","-1","2018-05-04T22:03:43.561849"
"2018-05-04T22:03:43.568089","emg","4","-3","-3","-20","4","26","15","9","2018-05-04T22:03:43.566914"
"2018-05-04T22:03:43.568475","emg","0","1","-9","-3","-6","-3","2","-2","2018-05-04T22:03:43.567443"
"2018-05-04T22:03:43.583851","acc","-218","-946","477","gyro","-1049","-605","-1472","quat","11130","-6818","17","9902","2018-05-04T22:03:43.582778"
"2018-05-04T22:03:43.584868","emg","-6","-5","-3","4","-2","-9","-8","-4","2018-05-04T22:03:43.584084"
"2018-05-04T22:03:43.585215","emg","6","5","3","4","8","14","13","9","2018-05-04T22:03:43.584423"
"2018-05-04T22:03:43.590515","emg","-1","1","-2","-11","-11","-10","-7","-3","2018-05-04T22:03:43.589339"
"2018-05-04T22:03:43.590892","emg","-2","2","3","-3","3","-2","-4","-1","2018-05-04T22:03:43.589944"
"2018-05-04T22:03:43.598876","acc","-422","-1055","649","gyro","-1320","-847","-1806","quat","11224","-6889","-370","9739","2018-05-04T22:03:43.597701"
"2018-05-04T22:03:43.600052","emg","1","0","17","19","23","20","14","2","2018-05-04T22:03:43.599193"
"2018-05-04T22:03:43.600409","emg","0","-4","-6","-6","-20","-21","-16","-6","2018-05-04T22:03:43.599620"
"2018-05-04T22:03:43.612858","emg","-7","-7","-12","-17","-17","-4","-6","-7","2018-05-04T22:03:43.611709"
"2018-05-04T22:03:43.613221","emg","5","4","7","7","12","7","4","5","2018-05-04T22:03:43.612311"
"2018-05-04T22:03:43.621108","acc","-572","-1281","691","gyro","-1751","-1019","-2169","quat","11312","-6989","-848","9534","2018-05-04T22:03:43.619989"
"2018-05-04T22:03:43.622249","emg","1","3","7","-6","-4","-5","-3","-1","2018-05-04T22:03:43.621340"
"2018-05-04T22:03:43.622679","emg","-3","0","0","8","5","4","2","1","2018-05-04T22:03:43.621744"
"2018-05-04T22:03:43.627978","emg","-2","-3","1","-4","-9","-10","-9","-4","2018-05-04T22:03:43.626870"
"2018-05-04T22:03:43.628342","emg","2","1","4","3","-5","-11","-5","-3","2018-05-04T22:03:43.627439"
"2018-05-04T22:03:43.643803","acc","-584","-1671","729","gyro","-2242","-1118","-2679","quat","11398","-7128","-1430","9255","2018-05-04T22:03:43.642664"
"2018-05-04T22:03:43.644847","emg","7","4","-4","-3","2","9","5","7","2018-05-04T22:03:43.644030"
"2018-05-04T22:03:43.645199","emg","5","3","-17","-11","6","7","3","2","2018-05-04T22:03:43.644425"
"2018-05-04T22:03:43.650576","emg","-28","-35","-18","-11","-11","-13","-12","-16","2018-05-04T22:03:43.649375"
"2018-05-04T22:03:43.650943","emg","-6","-3","11","4","-5","-7","-7","-7","2018-05-04T22:03:43.649978"
"2018-05-04T22:03:43.658802","acc","-680","-1970","892","gyro","-2142","-1093","-2961","quat","11500","-7241","-2016","8927","2018-05-04T22:03:43.657622"
"2018-05-04T22:03:43.660006","emg","20","15","4","1","0","1","5","11","2018-05-04T22:03:43.659085"
"2018-05-04T22:03:43.660378","emg","-12","-41","-11","14","-1","-4","-1","-6","2018-05-04T22:03:43.659496"
"2018-05-04T22:03:43.672819","emg","3","-6","-38","-68","-22","-8","-1","-1","2018-05-04T22:03:43.671676"
"2018-05-04T22:03:43.673182","emg","-10","-2","-3","11","7","-3","-5","-7","2018-05-04T22:03:43.672273"
"2018-05-04T22:03:43.680741","acc","-818","-2154","975","gyro","-1883","-1054","-3007","quat","11606","-7313","-2567","8583","2018-05-04T22:03:43.679733"
"2018-05-04T22:03:43.681694","emg","-7","3","7","-5","-3","0","0","-3","2018-05-04T22:03:43.680933"
"2018-05-04T22:03:43.682000","emg","11","16","4","3","-2","3","1","3","2018-05-04T22:03:43.681294"
"2018-05-04T22:03:43.687943","emg","0","10","30","37","13","3","-1","-1","2018-05-04T22:03:43.686896"
"2018-05-04T22:03:43.688253","emg","4","5","6","10","12","5","3","2","2018-05-04T22:03:43.687423"
"2018-05-04T22:03:43.703843","acc","-787","-2059","1044","gyro","-1857","-1105","-3211","quat","11712","-7356","-3129","8207","2018-05-04T22:03:43.702673"
"2018-05-04T22:03:43.704887","emg","-3","0","-23","-31","-19","-8","-5","-3","2018-05-04T22:03:43.704053"
"2018-05-04T22:03:43.705244","emg","1","-3","2","11","-1","-8","-2","-1","2018-05-04T22:03:43.704459"
"2018-05-04T22:03:43.710598","emg","2","2","-3","-9","6","11","8","3","2018-05-04T22:03:43.709391"
"2018-05-04T22:03:43.710958","emg","5","0","-1","-8","0","8","4","6","2018-05-04T22:03:43.709973"
"2018-05-04T22:03:43.718699","acc","-473","-2165","985","gyro","-1937","-1023","-3534","quat","11822","-7390","-3711","7764","2018-05-04T22:03:43.717500"
"2018-05-04T22:03:43.719828","emg","-2","-2","9","32","13","4","3","0","2018-05-04T22:03:43.718929"
"2018-05-04T22:03:43.720189","emg","-8","-3","-4","-7","-8","-9","-7","-6","2018-05-04T22:03:43.719399"
"2018-05-04T22:03:43.732879","emg","5","4","7","5","-3","-5","2","0","2018-05-04T22:03:43.731716"
"2018-05-04T22:03:43.733241","emg","-2","-2","1","2","-10","-10","-3","-4","2018-05-04T22:03:43.732307"
"2018-05-04T22:03:43.741132","acc","-283","-2578","1041","gyro","-1878","-870","-3326","quat","11903","-7423","-4245","7323","2018-05-04T22:03:43.739864"
"2018-05-04T22:03:43.742182","emg","-4","-11","-9","0","22","20","3","-4","2018-05-04T22:03:43.741318"
"2018-05-04T22:03:43.742571","emg","-4","5","1","-11","-3","-10","-6","-5","2018-05-04T22:03:43.741738"
"2018-05-04T22:03:43.747526","emg","5","6","6","11","-2","13","3","5","2018-05-04T22:03:43.746522"
"2018-05-04T22:03:43.747887","emg","1","0","-8","-17","-2","-5","-2","0","2018-05-04T22:03:43.747049"
"2018-05-04T22:03:43.755711","acc","-369","-2802","1055","gyro","-1686","-709","-2961","quat","11956","-7452","-4702","6917","2018-05-04T22:03:43.754552"
"2018-05-04T22:03:43.763237","emg","-10","-15","-11","-17","-23","-16","-7","-7","2018-05-04T22:03:43.762065"
"2018-05-04T22:03:43.763602","emg","0","6","5","6","7","2","-6","-3","2018-05-04T22:03:43.762695"
"2018-05-04T22:03:43.770449","emg","-2","-5","-17","-8","-6","-11","-7","-3","2018-05-04T22:03:43.769286"
"2018-05-04T22:03:43.770824","emg","-5","-3","-6","-9","-5","-5","-4","-2","2018-05-04T22:03:43.769859"
"2018-05-04T22:03:43.778803","acc","-427","-2443","1021","gyro","-1423","-575","-2721","quat","12005","-7458","-5092","6540","2018-05-04T22:03:43.777616"
"2018-05-04T22:03:43.779892","emg","-4","-9","-17","-23","-7","-3","-4","-2","2018-05-04T22:03:43.779041"
"2018-05-04T22:03:43.780244","emg","4","5","14","13","5","4","4","5","2018-05-04T22:03:43.779411"
"2018-05-04T22:03:43.792509","emg","3","5","13","37","16","0","-4","4","2018-05-04T22:03:43.791435"
"2018-05-04T22:03:43.792827","emg","-4","-6","-13","-39","-23","0","-3","-4","2018-05-04T22:03:43.792009"
"2018-05-04T22:03:43.801142","acc","-282","-2402","1158","gyro","-1413","-442","-2461","quat","12034","-7475","-5434","6182","2018-05-04T22:03:43.799980"
"2018-05-04T22:03:43.802175","emg","0","3","4","19","12","2","2","1","2018-05-04T22:03:43.801348"
"2018-05-04T22:03:43.802587","emg","-1","0","-6","-18","-8","-1","-1","-1","2018-05-04T22:03:43.801769"
"2018-05-04T22:03:43.808154","emg","1","4","6","28","15","-3","0","2","2018-05-04T22:03:43.806995"
"2018-05-04T22:03:43.808519","emg","-4","-5","2","12","-3","-6","-4","-3","2018-05-04T22:03:43.807584"
"2018-05-04T22:03:43.815780","acc","-158","-2628","1084","gyro","-1496","-426","-2200","quat","12028","-7514","-5755","5846","2018-05-04T22:03:43.814594"
"2018-05-04T22:03:43.823247","emg","-5","-3","-6","-22","-13","-5","-6","-8","2018-05-04T22:03:43.821989"
"2018-05-04T22:03:43.823627","emg","-1","-1","-4","-2","-12","-3","-1","-1","2018-05-04T22:03:43.822690"
"2018-05-04T22:03:43.830512","emg","2","4","8","-5","16","6","1","0","2018-05-04T22:03:43.829295"
"2018-05-04T22:03:43.830887","emg","-2","-4","-5","12","-2","1","-1","1","2018-05-04T22:03:43.829903"
"2018-05-04T22:03:43.838896","acc","-63","-2524","1100","gyro","-1149","-332","-1988","quat","12036","-7520","-6019","5549","2018-05-04T22:03:43.837734"
"2018-05-04T22:03:43.839939","emg","4","4","6","11","11","7","6","4","2018-05-04T22:03:43.839149"
"2018-05-04T22:03:43.840300","emg","1","2","11","6","1","1","1","2","2018-05-04T22:03:43.839502"
"2018-05-04T22:03:43.852899","emg","-3","-5","-12","-11","-9","-10","-4","-6","2018-05-04T22:03:43.851716"
"2018-05-04T22:03:43.853263","emg","-2","-3","-8","-14","-12","-9","-12","-5","2018-05-04T22:03:43.852325"
"2018-05-04T22:03:43.860989","acc","-40","-2347","991","gyro","-918","-253","-1773","quat","12048","-7512","-6238","5286","2018-05-04T22:03:43.859834"
"2018-05-04T22:03:43.862060","emg","3","9","28","20","2","-1","-1","2","2018-05-04T22:03:43.861223"
"2018-05-04T22:03:43.862524","emg","3","3","14","22","25","18","9","7","2018-05-04T22:03:43.861624"
"2018-05-04T22:03:43.868059","emg","2","6","-4","-28","-12","3","6","2","2018-05-04T22:03:43.866891"
"2018-05-04T22:03:43.868425","emg","0","-3","-4","13","13","11","3","-2","2018-05-04T22:03:43.867514"
"2018-05-04T22:03:43.875714","acc","57","-2283","912","gyro","-906","-243","-1584","quat","12047","-7523","-6398","5076","2018-05-04T22:03:43.874583"
"2018-05-04T22:03:43.883118","emg","-5","-5","-4","2","-3","-7","-3","-7","2018-05-04T22:03:43.881871"
"2018-05-04T22:03:43.883563","emg","-5","-8","-15","-16","-8","-4","0","-7","2018-05-04T22:03:43.882542"
"2018-05-04T22:03:43.890445","emg","0","1","8","7","8","2","-1","-1","2018-05-04T22:03:43.889272"
"2018-05-04T22:03:43.890858","emg","0","2","6","-2","-10","-10","-4","0","2018-05-04T22:03:43.889851"
"2018-05-04T22:03:43.898886","acc","146","-2476","910","gyro","-835","-188","-1291","quat","12035","-7549","-6522","4906","2018-05-04T22:03:43.897695"
