"2018-05-04T22:04:00.360275","emg","-1","-3","-8","1","-1","0","-2","-3","2018-05-04T22:04:00.359027"
"2018-05-04T22:04:00.360690","emg","0","-1","0","5","1","1","1","-2","2018-05-04T22:04:00.359539"
"2018-05-04T22:04:00.367779","acc","634","-1945","362","gyro","50","-3","-17","quat","11488","-7866","-7040","5003","2018-05-04T22:04:00.366751"
"2018-05-04T22:04:00.375738","emg","-2","1","2","0","-4","-2","-1","-1","2018-05-04T22:04:00.374472"
"2018-05-04T22:04:00.376127","emg","1","1","5","5","1","-3","-1","-1","2018-05-04T22:04:00.375033"
"2018-05-04T22:04:00.382693","emg","-1","1","5","10","5","2","0","0","2018-05-04T22:04:00.381581"
"2018-05-04T22:04:00.383097","emg","-1","-2","-9","-20","-7","-3","-1","-2","2018-05-04T22:04:00.382055"
"2018-05-04T22:04:00.390545","acc","623","-1929","344","gyro","50","-16","-37","quat","11492","-7857","-7042","5004","2018-05-04T22:04:00.389667"
"2018-05-04T22:04:00.391773","emg","-3","-5","-13","-14","-6","-5","-4","-5","2018-05-04T22:04:00.390993"
"2018-05-04T22:04:00.392131","emg","-2","-2","3","-1","-2","-3","-3","-1","2018-05-04T22:04:00.391352"
"2018-05-04T22:04:00.405034","emg","-1","3","5","10","6","4","0","-2","2018-05-04T22:04:00.403943"
"2018-05-04T22:04:00.405367","emg","-2","2","3","8","1","2","0","-5","2018-05-04T22:04:00.404440"
"2018-05-04T22:04:00.413640","acc","623","-1950","324","gyro","-4","-48","-29","quat","11487","-7855","-7051","5005","2018-05-04T22:04:00.412506"
"2018-05-04T22:04:00.414832","emg","0","-3","-6","-6","3","5","10","12","2018-05-04T22:04:00.414045"
"2018-05-04T22:04:00.415188","emg","-3","0","3","4","-4","-4","-1","-2","2018-05-04T22:04:00.414368"
"2018-05-04T22:04:00.420357","emg","1","9","2","1","-1","-7","-4","-5","2018-05-04T22:04:00.419266"
"2018-05-04T22:04:00.420766","emg","-4","-6","-5","-7","4","5","-37","-53","2018-05-04T22:04:00.419782"
"2018-05-04T22:04:00.428024","acc","616","-1964","330","gyro","-140","-117","-54","quat","11468","-7865","-7076","4999","2018-05-04T22:04:00.427025"
"2018-05-04T22:04:00.435411","emg","6","1","5","-7","-8","-9","37","58","2018-05-04T22:04:00.434304"
"2018-05-04T22:04:00.435752","emg","9","-1","-3","15","14","16","38","42","2018-05-04T22:04:00.434830"
"2018-05-04T22:04:00.443036","emg","-8","-11","6","18","2","2","-1","-6","2018-05-04T22:04:00.441925"
"2018-05-04T22:04:00.443389","emg","-15","-18","-9","-19","-24","-24","-32","-24","2018-05-04T22:04:00.442470"
"2018-05-04T22:04:00.451392","acc","677","-2280","734","gyro","-302","-307","0","quat","11436","-7871","-7110","5016","2018-05-04T22:04:00.450222"
"2018-05-04T22:04:00.452558","emg","-5","3","-10","-14","-9","-19","-6","-13","2018-05-04T22:04:00.451810"
"2018-05-04T22:04:00.452903","emg","3","23","8","0","1","0","-13","-11","2018-05-04T22:04:00.452130"
"2018-05-04T22:04:00.465058","emg","16","26","-12","-10","3","23","4","-3","2018-05-04T22:04:00.463959"
"2018-05-04T22:04:00.465399","emg","15","-4","13","31","31","37","67","73","2018-05-04T22:04:00.464455"
"2018-05-04T22:04:00.473823","acc","728","-2757","813","gyro","-97","-462","577","quat","11376","-7890","-7097","5137","2018-05-04T22:04:00.472580"
"2018-05-04T22:04:00.475209","emg","-6","-24","5","7","0","-5","-32","-38","2018-05-04T22:04:00.474257"
"2018-05-04T22:04:00.475619","emg","8","36","0","-9","-17","-21","-7","15","2018-05-04T22:04:00.474711"
"2018-05-04T22:04:00.479978","emg","7","20","8","-8","-8","-6","-23","-18","2018-05-04T22:04:00.478988"
"2018-05-04T22:04:00.480400","emg","2","-51","-40","-17","-10","-11","-89","-93","2018-05-04T22:04:00.479409"
"2018-05-04T22:04:00.488069","acc","318","-2866","836","gyro","937","-606","1292","quat","11340","-7845","-6964","5457","2018-05-04T22:04:00.487066"
"2018-05-04T22:04:00.495009","emg","-39","-94","-28","-6","2","14","104","87","2018-05-04T22:04:00.493971"
"2018-05-04T22:04:00.495352","emg","-32","-38","-1","-2","1","4","14","-4","2018-05-04T22:04:00.494426"
"2018-05-04T22:04:00.502933","emg","-6","20","10","0","1","-4","-3","-1","2018-05-04T22:04:00.501825"
"2018-05-04T22:04:00.503324","emg","-3","96","48","4","-2","-10","-60","-70","2018-05-04T22:04:00.502316"
"2018-05-04T22:04:00.511350","acc","-110","-2460","887","gyro","833","-790","1954","quat","11233","-7844","-6828","5840","2018-05-04T22:04:00.510201"
"2018-05-04T22:04:00.512466","emg","62","24","25","22","19","18","49","61","2018-05-04T22:04:00.511715"
"2018-05-04T22:04:00.512823","emg","-6","-6","-4","-27","-21","-12","-45","-57","2018-05-04T22:04:00.512039"
"2018-05-04T22:04:00.525332","emg","-9","-9","-1","7","1","-6","17","14","2018-05-04T22:04:00.524106"
"2018-05-04T22:04:00.525719","emg","-7","1","5","9","1","-9","-16","-5","2018-05-04T22:04:00.524653"
"2018-05-04T22:04:00.533837","acc","-355","-2201","1023","gyro","770","-727","2202","quat","11102","-7866","-6660","6242","2018-05-04T22:04:00.532577"
"2018-05-04T22:04:00.535270","emg","-6","25","-6","-4","0","-2","-46","-50","2018-05-04T22:04:00.534272"
"2018-05-04T22:04:00.535695","emg","-4","-3","-11","-9","-3","0","7","-3","2018-05-04T22:04:00.534769"
"2018-05-04T22:04:00.540013","emg","15","-2","-12","-10","-5","-1","8","24","2018-05-04T22:04:00.539074"
"2018-05-04T22:04:00.540413","emg","38","-10","5","13","13","14","58","88","2018-05-04T22:04:00.539474"
"2018-05-04T22:04:00.548246","acc","-730","-2435","938","gyro","135","-888","2363","quat","10881","-7964","-6532","6629","2018-05-04T22:04:00.547156"
"2018-05-04T22:04:00.555806","emg","-19","-7","-21","-14","-17","-16","-41","-29","2018-05-04T22:04:00.554536"
"2018-05-04T22:04:00.556199","emg","-14","-16","-35","-7","5","-1","-25","-28","2018-05-04T22:04:00.555137"
"2018-05-04T22:04:00.563150","emg","24","-48","-39","-20","-21","-19","-47","-39","2018-05-04T22:04:00.561947"
"2018-05-04T22:04:00.563540","emg","-25","-2","-3","9","12","9","59","20","2018-05-04T22:04:00.562491"
"2018-05-04T22:04:00.571605","acc","-819","-2769","881","gyro","331","-1259","2270","quat","10647","-8000","-6439","7044","2018-05-04T22:04:00.570297"
"2018-05-04T22:04:00.572900","emg","-12","23","14","3","-7","13","25","21","2018-05-04T22:04:00.572048"
"2018-05-04T22:04:00.573305","emg","-1","-13","-40","1","-7","-12","5","0","2018-05-04T22:04:00.572416"
"2018-05-04T22:04:00.585388","emg","-21","-40","36","9","6","-1","-33","-24","2018-05-04T22:04:00.584141"
"2018-05-04T22:04:00.585801","emg","16","-24","-15","-13","-11","-5","32","47","2018-05-04T22:04:00.584740"
"2018-05-04T22:04:00.593781","acc","-687","-2853","615","gyro","1067","-1461","2348","quat","10443","-7936","-6306","7525","2018-05-04T22:04:00.592522"
"2018-05-04T22:04:00.595146","emg","-61","-6","-15","-3","-4","-13","-42","-82","2018-05-04T22:04:00.594218"
"2018-05-04T22:04:00.595557","emg","8","27","19","7","6","7","28","39","2018-05-04T22:04:00.594647"
"2018-05-04T22:04:00.608802","emg","-3","7","-16","-14","-5","-2","10","16","2018-05-04T22:04:00.607575"
"2018-05-04T22:04:00.609369","emg","-6","5","12","-26","-7","4","6","9","2018-05-04T22:04:00.608136"
"2018-05-04T22:04:00.610692","acc","-832","-2425","577","gyro","1445","-1417","2489","quat","10252","-7832","-6118","8035","2018-05-04T22:04:00.609880"
"2018-05-04T22:04:00.615735","emg","-5","4","-3","2","2","-1","-58","-72","2018-05-04T22:04:00.614541"
"2018-05-04T22:04:00.616127","emg","-2","-7","26","69","23","-9","-30","-26","2018-05-04T22:04:00.615058"
"2018-05-04T22:04:00.622993","emg","46","1","-11","-2","-2","1","40","47","2018-05-04T22:04:00.621726"
"2018-05-04T22:04:00.623410","emg","-30","14","7","7","-3","-7","-43","-66","2018-05-04T22:04:00.622299"
"2018-05-04T22:04:00.630720","acc","-1349","-1897","340","gyro","1067","-1724","2283","quat","10008","-7728","-6003","8515","2018-05-04T22:04:00.629587"
"2018-05-04T22:04:00.638041","emg","26","16","-14","-22","1","9","32","56","2018-05-04T22:04:00.636795"
"2018-05-04T22:04:00.638482","emg","10","-10","4","-26","-12","7","27","52","2018-05-04T22:04:00.637362"
"2018-05-04T22:04:00.645371","emg","-14","-12","-14","-1","-3","-5","-13","-25","2018-05-04T22:04:00.644165"
"2018-05-04T22:04:00.645798","emg","-13","-4","-14","-6","-7","-12","-43","-43","2018-05-04T22:04:00.644714"
"2018-05-04T22:04:00.653762","acc","-1514","-1752","2","gyro","555","-2309","1597","quat","9731","-7579","-6051","8926","2018-05-04T22:04:00.652517"
"2018-05-04T22:04:00.655120","emg","49","6","9","3","7","19","70","62","2018-05-04T22:04:00.654210"
"2018-05-04T22:04:00.655520","emg","14","0","-2","2","-2","-2","8","16","2018-05-04T22:04:00.654623"
"2018-05-04T22:04:00.668876","emg","-39","3","9","-3","-5","-6","-9","-28","2018-05-04T22:04:00.667642"
"2018-05-04T22:04:00.669446","emg","-4","-5","-5","-1","-2","-3","1","5","2018-05-04T22:04:00.668201"
"2018-05-04T22:04:00.670766","acc","-1306","-1927","-399","gyro","88","-2895","940","quat","9429","-7376","-6264","9268","2018-05-04T22:04:00.669962"
"2018-05-04T22:04:00.675775","emg","12","8","18","14","5","-6","-37","-19","2018-05-04T22:04:00.674546"
"2018-05-04T22:04:00.676162","emg","-13","3","16","6","5","5","-28","-49","2018-05-04T22:04:00.675098"
"2018-05-04T22:04:00.683379","emg","-11","-1","-28","-37","-12","-2","20","13","2018-05-04T22:04:00.682124"
"2018-05-04T22:04:00.683767","emg","7","-2","6","12","0","-7","-8","11","2018-05-04T22:04:00.682702"
"2018-05-04T22:04:00.690652","acc","-1069","-2234","-633","gyro","78","-3365","506","quat","9126","-7088","-6561","9585","2018-05-04T22:04:00.689486"
"2018-05-04T22:04:00.698027","emg","-5","8","9","13","14","7","-17","-28","2018-05-04T22:04:00.696813"
"2018-05-04T22:04:00.698468","emg","14","0","-2","-16","-11","-2","3","7","2018-05-04T22:04:00.697358"
"2018-05-04T22:04:00.705403","emg","-2","6","18","14","14","6","45","32","2018-05-04T22:04:00.704182"
"2018-05-04T22:04:00.705808","emg","3","-6","-19","-5","-6","4","33","30","2018-05-04T22:04:00.704748"
"2018-05-04T22:04:00.713889","acc","-862","-2368","-811","gyro","292","-3716","112","quat","8841","-6704","-6896","9887","2018-05-04T22:04:00.712643"
"2018-05-04T22:04:00.715261","emg","-24","-14","-15","-2","-11","-14","-52","-52","2018-05-04T22:04:00.714322"
"2018-05-04T22:04:00.715678","emg","3","10","11","10","14","6","-89","-86","2018-05-04T22:04:00.714763"
"2018-05-04T22:04:00.728932","emg","35","0","-7","-16","-15","7","77","86","2018-05-04T22:04:00.727731"
"2018-05-04T22:04:00.729573","emg","-25","-11","-6","-8","-2","-6","-23","-48","2018-05-04T22:04:00.728276"
"2018-05-04T22:04:00.731812","acc","-394","-2432","-970","gyro","909","-4001","-354","quat","8617","-6180","-7224","10189","2018-05-04T22:04:00.730306"
"2018-05-04T22:04:00.738153","emg","20","15","12","2","-29","-28","6","20","2018-05-04T22:04:00.737094"
"2018-05-04T22:04:00.738564","emg","-35","-18","-10","-17","16","0","-55","-64","2018-05-04T22:04:00.737575"
"2018-05-04T22:04:00.742404","emg","0","7","4","14","12","11","-84","-67","2018-05-04T22:04:00.741461"
"2018-05-04T22:04:00.742898","emg","22","18","18","15","10","7","24","41","2018-05-04T22:04:00.741866"
"2018-05-04T22:04:00.750038","acc","147","-2393","-939","gyro","1625","-4050","-595","quat","8449","-5543","-7483","10503","2018-05-04T22:04:00.749153"
"2018-05-04T22:04:00.757581","emg","-2","0","5","-1","1","4","7","1","2018-05-04T22:04:00.756517"
"2018-05-04T22:04:00.757960","emg","-31","-2","2","-14","-18","-24","-63","-59","2018-05-04T22:04:00.757003"
"2018-05-04T22:04:00.765274","emg","0","11","21","30","5","-8","-42","-39","2018-05-04T22:04:00.764095"
"2018-05-04T22:04:00.765637","emg","14","0","-5","-4","-4","1","4","14","2018-05-04T22:04:00.764669"
"2018-05-04T22:04:00.773662","acc","571","-2200","-995","gyro","2182","-4059","-574","quat","8294","-4837","-7666","10838","2018-05-04T22:04:00.772580"
"2018-05-04T22:04:00.774701","emg","1","3","0","8","4","5","32","31","2018-05-04T22:04:00.773878"
"2018-05-04T22:04:00.775064","emg","32","7","0","-4","-3","1","23","53","2018-05-04T22:04:00.774207"
"2018-05-04T22:04:00.787918","emg","-32","-8","-12","-17","4","2","-13","-28","2018-05-04T22:04:00.787076"
"2018-05-04T22:04:00.788270","emg","-8","-7","-3","11","1","-8","-32","-28","2018-05-04T22:04:00.787514"
"2018-05-04T22:04:00.789431","acc","1151","-2112","-756","gyro","2534","-3705","-47","quat","8111","-4161","-7733","11204","2018-05-04T22:04:00.788684"
"2018-05-04T22:04:00.794739","emg","4","-4","-12","-14","-1","2","-30","-26","2018-05-04T22:04:00.793856"
"2018-05-04T22:04:00.795048","emg","-9","-7","-12","-16","-18","-9","14","0","2018-05-04T22:04:00.794265"
"2018-05-04T22:04:00.802163","emg","5","7","5","6","15","9","-4","-5","2018-05-04T22:04:00.801375"
"2018-05-04T22:04:00.802501","emg","4","-2","-2","4","15","10","50","58","2018-05-04T22:04:00.801720"
"2018-05-04T22:04:00.810141","acc","1458","-1806","-626","gyro","2442","-3176","639","quat","7869","-3599","-7717","11576","2018-05-04T22:04:00.809119"
"2018-05-04T22:04:00.817715","emg","-13","0","5","6","8","-4","-53","-57","2018-05-04T22:04:00.816681"
"2018-05-04T22:04:00.818040","emg","-28","4","13","-1","-8","-16","-17","-40","2018-05-04T22:04:00.817190"
"2018-05-04T22:04:00.825104","emg","72","-12","-24","-24","-20","38","88","92","2018-05-04T22:04:00.824064"
"2018-05-04T22:04:00.825424","emg","3","5","2","-13","-10","-22","-121","-113","2018-05-04T22:04:00.824556"
"2018-05-04T22:04:00.833716","acc","1718","-1368","-254","gyro","1423","-2990","1286","quat","7514","-3185","-7768","11895","2018-05-04T22:04:00.832595"
"2018-05-04T22:04:00.834794","emg","13","7","10","-2","14","40","115","118","2018-05-04T22:04:00.833916"
"2018-05-04T22:04:00.835151","emg","63","12","4","9","2","7","24","45","2018-05-04T22:04:00.834251"
"2018-05-04T22:04:00.848863","emg","-34","19","40","37","17","-15","-2","-5","2018-05-04T22:04:00.847698"
"2018-05-04T22:04:00.849264","emg","1","-12","-19","-17","-13","-1","16","29","2018-05-04T22:04:00.848254"
"2018-05-04T22:04:00.850364","acc","1753","-1183","-34","gyro","1293","-2375","1767","quat","7136","-2894","-7754","12207","2018-05-04T22:04:00.849565"
"2018-05-04T22:04:00.855669","emg","3","0","7","0","-3","-16","-47","-38","2018-05-04T22:04:00.854555"
"2018-05-04T22:04:00.856042","emg","-45","-25","-18","-3","0","-12","-29","-46","2018-05-04T22:04:00.855081"
"2018-05-04T22:04:00.863156","emg","-27","7","22","11","9","-2","-10","-29","2018-05-04T22:04:00.861974"
"2018-05-04T22:04:00.863526","emg","24","3","2","-1","-8","1","16","39","2018-05-04T22:04:00.862554"
"2018-05-04T22:04:00.870262","acc","2554","-658","632","gyro","517","-1878","1941","quat","6757","-2719","-7783","12442","2018-05-04T22:04:00.869212"
"2018-05-04T22:04:00.878097","emg","-38","-8","-5","0","-8","-29","-110","-95","2018-05-04T22:04:00.876933"
"2018-05-04T22:04:00.878540","emg","22","-5","-13","-7","2","26","105","119","2018-05-04T22:04:00.877435"
"2018-05-04T22:04:00.884857","emg","12","-3","-13","-2","3","9","8","17","2018-05-04T22:04:00.883937"
"2018-05-04T22:04:00.885230","emg","-73","7","22","12","0","-34","-105","-109","2018-05-04T22:04:00.884383"
"2018-05-04T22:04:00.893043","acc","3039","-433","733","gyro","99","-1153","1004","quat","6655","-2404","-7884","12498","2018-05-04T22:04:00.892164"
"2018-05-04T22:04:00.894230","emg","87","11","-1","0","11","57","75","97","2018-05-04T22:04:00.893476"
"2018-05-04T22:04:00.894629","emg","10","9","6","16","22","28","-19","-48","2018-05-04T22:04:00.893803"
"2018-05-04T22:04:00.908112","emg","-26","-15","-9","-6","-9","-15","-67","-57","2018-05-04T22:04:00.907093"
"2018-05-04T22:04:00.908620","emg","-8","-9","-12","-11","-11","-12","-9","-2","2018-05-04T22:04:00.907526"
"2018-05-04T22:04:00.909764","acc","2389","-870","709","gyro","-114","-234","184","quat","6699","-2224","-7965","12456","2018-05-04T22:04:00.909045"
"2018-05-04T22:04:00.915296","emg","-32","-11","-7","-4","-8","-13","11","-22","2018-05-04T22:04:00.914125"
"2018-05-04T22:04:00.915642","emg","-5","-3","0","4","-1","-2","12","12","2018-05-04T22:04:00.914690"
"2018-05-04T22:04:00.922932","emg","-13","-6","3","-3","-9","-13","-12","-30","2018-05-04T22:04:00.921843"
"2018-05-04T22:04:00.923274","emg","15","5","-3","-2","-11","-4","17","16","2018-05-04T22:04:00.922321"
"2018-05-04T22:04:00.930561","acc","1645","-1108","616","gyro","-573","56","-159","quat","6766","-2155","-8085","12355","2018-05-04T22:04:00.929467"
"2018-05-04T22:04:00.937748","emg","-12","-13","6","7","21","2","-27","-25","2018-05-04T22:04:00.936683"
"2018-05-04T22:04:00.938092","emg","37","9","14","3","10","22","42","72","2018-05-04T22:04:00.937164"
"2018-05-04T22:04:00.945185","emg","-32","-9","-18","-13","-17","-20","-43","-47","2018-05-04T22:04:00.944062"
"2018-05-04T22:04:00.945533","emg","-1","-4","18","8","-6","2","17","-1","2018-05-04T22:04:00.944581"
"2018-05-04T22:04:00.953539","acc","1106","-1147","421","gyro","-1109","199","-396","quat","6839","-2171","-8266","12191","2018-05-04T22:04:00.952461"
"2018-05-04T22:04:00.954759","emg","-11","-8","-14","-16","0","-11","-13","-15","2018-05-04T22:04:00.953920"
"2018-05-04T22:04:00.955123","emg","-11","-3","-14","-8","-9","-6","0","-6","2018-05-04T22:04:00.954296"
"2018-05-04T22:04:00.968547","emg","9","0","-2","-6","-3","-7","-6","12","2018-05-04T22:04:00.967384"
"2018-05-04T22:04:00.969043","emg","-2","-1","-8","-1","-1","3","-17","-11","2018-05-04T22:04:00.967917"
"2018-05-04T22:04:00.970190","acc","985","-1702","354","gyro","-1780","472","-357","quat","6888","-2326","-8486","11982","2018-05-04T22:04:00.969509"
"2018-05-04T22:04:00.975443","emg","-1","0","8","-1","-8","-5","14","13","2018-05-04T22:04:00.974357"
"2018-05-04T22:04:00.975784","emg","-3","1","7","6","0","-11","-23","-27","2018-05-04T22:04:00.974874"
"2018-05-04T22:04:00.982220","emg","-1","6","-10","-6","-2","-2","-14","-9","2018-05-04T22:04:00.981404"
"2018-05-04T22:04:00.982613","emg","4","-9","-13","0","7","14","24","15","2018-05-04T22:04:00.981752"
"2018-05-04T22:04:00.990564","acc","697","-2044","446","gyro","-1434","882","-228","quat","6958","-2524","-8650","11782","2018-05-04T22:04:00.989503"
"2018-05-04T22:04:00.997242","emg","4","7","-3","-1","-1","-4","-23","-6","2018-05-04T22:04:00.996331"
"2018-05-04T22:04:00.997592","emg","-8","-9","-8","-5","-3","-7","-10","-7","2018-05-04T22:04:00.996720"
"2018-05-04T22:04:01.004487","emg","4","4","5","5","3","2","3","2","2018-05-04T22:04:01.003774"
"2018-05-04T22:04:01.004846","emg","12","4","-1","0","10","8","21","20","2018-05-04T22:04:01.004089"
"2018-05-04T22:04:01.013475","acc","594","-1801","459","gyro","-959","1195","-214","quat","7069","-2726","-8713","11623","2018-05-04T22:04:01.012346"
"2018-05-04T22:04:01.014694","emg","-1","3","2","0","-4","-5","-12","-10","2018-05-04T22:04:01.013885"
"2018-05-04T22:04:01.015071","emg","-2","0","0","0","-5","-1","8","1","2018-05-04T22:04:01.014214"
"2018-05-04T22:04:01.028638","emg","10","3","-1","-2","2","0","1","13","2018-05-04T22:04:01.027459"
"2018-05-04T22:04:01.029207","emg","-3","-7","-3","-3","1","2","5","-5","2018-05-04T22:04:01.027986"
"2018-05-04T22:04:01.030526","acc","702","-1508","417","gyro","-1008","1328","-262","quat","7206","-2927","-8769","11447","2018-05-04T22:04:01.029711"
"2018-05-04T22:04:01.035598","emg","-21","-4","2","-1","-8","-12","-30","-25","2018-05-04T22:04:01.034348"
"2018-05-04T22:04:01.035991","emg","-3","1","-3","-2","-4","-3","-3","-9","2018-05-04T22:04:01.034936"
"2018-05-04T22:04:01.043225","emg","-4","-5","-3","-3","-2","-5","-9","-3","2018-05-04T22:04:01.041952"
"2018-05-04T22:04:01.043614","emg","14","10","7","6","9","13","25","23","2018-05-04T22:04:01.042540"
"2018-05-04T22:04:01.050667","acc","885","-1537","398","gyro","-1443","1415","-361","quat","7356","-3150","-8876","11208","2018-05-04T22:04:01.049517"
"2018-05-04T22:04:01.057993","emg","1","2","-3","1","-6","-3","-13","-4","2018-05-04T22:04:01.056775"
"2018-05-04T22:04:01.058459","emg","-3","-4","-1","-7","-4","-6","-2","-6","2018-05-04T22:04:01.057338"
"2018-05-04T22:04:01.065407","emg","-7","-8","-8","-5","0","0","1","-3","2018-05-04T22:04:01.064187"
"2018-05-04T22:04:01.065798","emg","5","2","2","2","1","1","9","4","2018-05-04T22:04:01.064735"
"2018-05-04T22:04:01.073880","acc","1090","-1753","456","gyro","-1588","1594","-507","quat","7540","-3380","-8988","10926","2018-05-04T22:04:01.072594"
"2018-05-04T22:04:01.075220","emg","-6","1","1","2","-2","-3","-6","-14","2018-05-04T22:04:01.074314"
"2018-05-04T22:04:01.075625","emg","2","0","1","-2","6","8","-3","10","2018-05-04T22:04:01.074729"
"2018-05-04T22:04:01.089084","emg","0","2","0","0","-1","4","13","1","2018-05-04T22:04:01.087884"
"2018-05-04T22:04:01.089659","emg","3","3","1","-4","-8","0","7","11","2018-05-04T22:04:01.088430"
"2018-05-04T22:04:01.090976","acc","1227","-1837","399","gyro","-1520","1860","-422","quat","7720","-3673","-9038","10661","2018-05-04T22:04:01.090160"
"2018-05-04T22:04:01.094940","emg","-3","-1","-3","-3","-6","-14","-9","-7","2018-05-04T22:04:01.093946"
"2018-05-04T22:04:01.095349","emg","-2","-2","-5","-2","17","21","-1","-3","2018-05-04T22:04:01.094354"
"2018-05-04T22:04:01.103226","emg","-7","-3","1","0","1","8","-15","-16","2018-05-04T22:04:01.101962"
"2018-05-04T22:04:01.103608","emg","6","4","2","-2","2","4","7","12","2018-05-04T22:04:01.102555"
"2018-05-04T22:04:01.110323","acc","1315","-1862","371","gyro","-1186","2286","-131","quat","7918","-4011","-8996","10427","2018-05-04T22:04:01.109241"
"2018-05-04T22:04:01.117726","emg","4","1","0","-8","-9","-12","-3","1","2018-05-04T22:04:01.116535"
"2018-05-04T22:04:01.118142","emg","-1","-2","0","-4","-7","-9","-1","-4","2018-05-04T22:04:01.117075"
"2018-05-04T22:04:01.125468","emg","0","1","-1","-5","-10","-19","-9","-9","2018-05-04T22:04:01.124250"
"2018-05-04T22:04:01.125876","emg","-5","-3","-4","-5","-1","-4","-7","-6","2018-05-04T22:04:01.124813"
"2018-05-04T22:04:01.133849","acc","1205","-1792","267","gyro","-896","2773","-25","quat","8156","-4387","-8866","10200","2018-05-04T22:04:01.132577"
"2018-05-04T22:04:01.135202","emg","-1","3","0","0","-12","6","12","0","2018-05-04T22:04:01.134282"
"2018-05-04T22:04:01.135607","emg","6","7","3","3","8","4","4","5","2018-05-04T22:04:01.134710"
"2018-05-04T22:04:01.148928","emg","5","2","-4","3","41","37","2","10","2018-05-04T22:04:01.147703"
"2018-05-04T22:04:01.149514","emg","-3","-2","-5","-6","-22","-19","-6","-4","2018-05-04T22:04:01.148251"
"2018-05-04T22:04:01.150882","acc","1223","-1885","46","gyro","-835","3065","-10","quat","8413","-4790","-8698","9952","2018-05-04T22:04:01.150000"
"2018-05-04T22:04:01.154820","emg","6","2","1","1","-13","-7","-4","4","2018-05-04T22:04:01.153961"
"2018-05-04T22:04:01.155183","emg","-5","-3","-5","-2","-20","-3","0","2","2018-05-04T22:04:01.154367"
"2018-05-04T22:04:01.162158","emg","3","1","5","3","30","18","8","8","2018-05-04T22:04:01.161375"
"2018-05-04T22:04:01.162499","emg","8","4","5","12","27","31","13","15","2018-05-04T22:04:01.161770"
"2018-05-04T22:04:01.170746","acc","1078","-2408","-202","gyro","-741","2890","114","quat","8630","-5178","-8523","9721","2018-05-04T22:04:01.169705"
"2018-05-04T22:04:01.177941","emg","1","0","1","-2","-10","-6","-8","-5","2018-05-04T22:04:01.176825"
"2018-05-04T22:04:01.178301","emg","4","6","9","-18","-30","-17","-22","-11","2018-05-04T22:04:01.177404"
"2018-05-04T22:04:01.185367","emg","3","7","5","-1","-9","-23","-13","-3","2018-05-04T22:04:01.184175"
"2018-05-04T22:04:01.185729","emg","-2","1","-9","-3","-2","2","17","0","2018-05-04T22:04:01.184792"
"2018-05-04T22:04:01.193752","acc","855","-2542","-356","gyro","-108","2797","704","quat","8800","-5551","-8249","9599","2018-05-04T22:04:01.192582"
"2018-05-04T22:04:01.194874","emg","-10","-6","-19","-15","-4","-6","-24","-12","2018-05-04T22:04:01.193987"
"2018-05-04T22:04:01.195234","emg","-9","-7","-16","-15","-4","-22","6","-3","2018-05-04T22:04:01.194447"
"2018-05-04T22:04:01.208962","emg","-15","-14","-16","12","-24","-33","8","-8","2018-05-04T22:04:01.207872"
"2018-05-04T22:04:01.209329","emg","-10","-17","0","53","22","-6","16","-2","2018-05-04T22:04:01.208395"
"2018-05-04T22:04:01.210442","acc","78","-2263","-379","gyro","62","2708","524","quat","8977","-5887","-7960","9478","2018-05-04T22:04:01.209604"
"2018-05-04T22:04:01.214762","emg","-3","-4","1","5","17","21","24","0","2018-05-04T22:04:01.213944"
"2018-05-04T22:04:01.215041","emg","-3","-3","-6","-7","10","-24","-14","-1","2018-05-04T22:04:01.214455"
"2018-05-04T22:04:01.223189","emg","-2","-8","-10","-34","-13","3","-3","1","2018-05-04T22:04:01.221970"
"2018-05-04T22:04:01.223548","emg","3","-5","-7","18","38","56","17","19","2018-05-04T22:04:01.222618"
"2018-05-04T22:04:01.230765","acc","-305","-2243","-443","gyro","-388","2233","124","quat","9114","-6185","-7779","9305","2018-05-04T22:04:01.229531"
"2018-05-04T22:04:01.237734","emg","-15","-11","19","64","14","-8","-22","-13","2018-05-04T22:04:01.236683"
"2018-05-04T22:04:01.238096","emg","-3","-2","14","37","22","6","-7","4","2018-05-04T22:04:01.237196"
"2018-05-04T22:04:01.245373","emg","-1","-4","-9","-57","-63","-42","-17","2","2018-05-04T22:04:01.244197"
"2018-05-04T22:04:01.245740","emg","-11","-7","6","-19","-33","-23","-17","-16","2018-05-04T22:04:01.244830"
"2018-05-04T22:04:01.253682","acc","-582","-2612","-344","gyro","-311","1786","-52","quat","9229","-6416","-7640","9150","2018-05-04T22:04:01.252542"
"2018-05-04T22:04:01.254882","emg","6","9","7","-14","10","14","-13","-5","2018-05-04T22:04:01.253915"
"2018-05-04T22:04:01.255248","emg","1","4","2","-18","15","16","41","22","2018-05-04T22:04:01.254323"
"2018-05-04T22:04:01.268875","emg","3","-1","5","59","-13","-19","-5","-2","2018-05-04T22:04:01.267685"
"2018-05-04T22:04:01.269241","emg","-1","-11","-22","-34","-17","-4","-2","0","2018-05-04T22:04:01.268305"
"2018-05-04T22:04:01.270487","acc","-1036","-2649","-137","gyro","443","1385","-93","quat","9299","-6615","-7445","9098","2018-05-04T22:04:01.269595"
"2018-05-04T22:04:01.275663","emg","-2","2","-4","-29","7","12","15","4","2018-05-04T22:04:01.274467"
"2018-05-04T22:04:01.276055","emg","12","11","13","48","20","11","-4","-6","2018-05-04T22:04:01.275087"
"2018-05-04T22:04:01.283186","emg","-11","-6","12","69","16","-7","-12","-13","2018-05-04T22:04:01.281980"
"2018-05-04T22:04:01.283547","emg","5","-1","-18","-91","-19","6","4","4","2018-05-04T22:04:01.282614"
"2018-05-04T22:04:01.290793","acc","-1464","-2465","145","gyro","1281","893","-397","quat","9414","-6662","-7201","9142","2018-05-04T22:04:01.289555"
"2018-05-04T22:04:01.297866","emg","0","-3","-8","20","-10","-25","-24","-23","2018-05-04T22:04:01.296698"
"2018-05-04T22:04:01.298237","emg","-8","-5","-7","-51","2","26","41","31","2018-05-04T22:04:01.297303"
"2018-05-04T22:04:01.305306","emg","23","22","18","-16","12","28","9","8","2018-05-04T22:04:01.304126"
"2018-05-04T22:04:01.305688","emg","-12","-2","15","79","-8","-33","-21","-12","2018-05-04T22:04:01.304757"
"2018-05-04T22:04:01.313657","acc","-1702","-2221","377","gyro","1648","384","-862","quat","9627","-6493","-7038","9169","2018-05-04T22:04:01.312483"
"2018-05-04T22:04:01.314782","emg","3","5","-11","-58","9","9","11","7","2018-05-04T22:04:01.313869"
"2018-05-04T22:04:01.315154","emg","-6","-5","19","38","-16","-11","-26","-27","2018-05-04T22:04:01.314276"
"2018-05-04T22:04:01.328848","emg","-9","-16","-62","-49","-10","-3","0","1","2018-05-04T22:04:01.327678"
"2018-05-04T22:04:01.329217","emg","-2","-8","12","6","-8","-17","-10","-5","2018-05-04T22:04:01.328298"
"2018-05-04T22:04:01.330463","acc","-1450","-1949","647","gyro","1858","190","-1311","quat","9885","-6238","-6902","9174","2018-05-04T22:04:01.329584"
"2018-05-04T22:04:01.335422","emg","10","6","9","-6","5","6","11","13","2018-05-04T22:04:01.334278"
"2018-05-04T22:04:01.335785","emg","-15","-1","-5","-51","-18","4","-3","-18","2018-05-04T22:04:01.334894"
"2018-05-04T22:04:01.342850","emg","-4","1","6","34","29","6","-7","-15","2018-05-04T22:04:01.341831"
"2018-05-04T22:04:01.343176","emg","0","2","-3","19","-12","-16","-15","-11","2018-05-04T22:04:01.342367"
"2018-05-04T22:04:01.350674","acc","-756","-1656","1028","gyro","1958","399","-1219","quat","10162","-5983","-6726","9171","2018-05-04T22:04:01.349474"
"2018-05-04T22:04:01.358009","emg","6","10","44","10","-8","-1","11","12","2018-05-04T22:04:01.356756"
"2018-05-04T22:04:01.358411","emg","2","-8","14","23","9","7","-1","0","2018-05-04T22:04:01.357437"
"2018-05-04T22:04:01.365341","emg","-5","2","-17","-32","1","6","-5","-9","2018-05-04T22:04:01.364133"
"2018-05-04T22:04:01.365734","emg","7","5","-12","-12","22","11","10","8","2018-05-04T22:04:01.364759"
"2018-05-04T22:04:01.373991","acc","-792","-1829","1182","gyro","1405","637","-686","quat","10346","-5882","-6484","9205","2018-05-04T22:04:01.372851"
"2018-05-04T22:04:01.375300","emg","-8","-20","-15","-34","-51","-24","-10","-6","2018-05-04T22:04:01.374425"
"2018-05-04T22:04:01.375690","emg","1","5","4","26","7","-5","-12","-15","2018-05-04T22:04:01.374792"
"2018-05-04T22:04:01.388672","emg","5","3","9","-9","1","4","8","14","2018-05-04T22:04:01.387568"
"2018-05-04T22:04:01.389164","emg","1","0","19","3","13","6","-11","-7","2018-05-04T22:04:01.388086"
"2018-05-04T22:04:01.390297","acc","-1415","-1803","1197","gyro","646","253","29","quat","10361","-5913","-6280","9310","2018-05-04T22:04:01.389625"
"2018-05-04T22:04:01.395247","emg","-11","-5","-45","6","-7","-14","-48","-49","2018-05-04T22:04:01.394121"
"2018-05-04T22:04:01.395637","emg","-15","-14","-37","-71","-51","-23","44","43","2018-05-04T22:04:01.394671"
"2018-05-04T22:04:01.402880","emg","-8","-7","9","7","1","0","-3","0","2018-05-04T22:04:01.401804"
"2018-05-04T22:04:01.403223","emg","4","8","5","8","23","7","2","6","2018-05-04T22:04:01.402288"
"2018-05-04T22:04:01.410526","acc","-1170","-1811","1143","gyro","98","-248","466","quat","10268","-5972","-6179","9442","2018-05-04T22:04:01.409461"
"2018-05-04T22:04:01.417611","emg","7","4","-11","-52","-34","1","6","11","2018-05-04T22:04:01.416563"
"2018-05-04T22:04:01.417989","emg","-5","-8","-4","25","16","-5","-34","-32","2018-05-04T22:04:01.417041"
"2018-05-04T22:04:01.425426","emg","4","8","19","33","-11","-10","-2","-3","2018-05-04T22:04:01.424340"
"2018-05-04T22:04:01.425781","emg","-1","-1","-37","-57","-10","7","7","4","2018-05-04T22:04:01.424931"
"2018-05-04T22:04:01.433641","acc","-400","-2155","1263","gyro","-270","-384","786","quat","10133","-6034","-6159","9561","2018-05-04T22:04:01.432411"
"2018-05-04T22:04:01.434876","emg","0","5","21","20","30","14","9","-4","2018-05-04T22:04:01.434033"
"2018-05-04T22:04:01.435242","emg","2","-8","-37","22","5","-7","-12","-4","2018-05-04T22:04:01.434448"
"2018-05-04T22:04:01.448682","emg","-3","-3","9","-14","-3","5","9","4","2018-05-04T22:04:01.447585"
"2018-05-04T22:04:01.449180","emg","3","12","28","17","-1","0","-4","-8","2018-05-04T22:04:01.448105"
"2018-05-04T22:04:01.450347","acc","17","-2340","1477","gyro","94","-207","840","quat","10045","-6045","-6098","9684","2018-05-04T22:04:01.449632"
"2018-05-04T22:04:01.454772","emg","1","-7","-44","-34","-3","7","19","14","2018-05-04T22:04:01.453868"
"2018-05-04T22:04:01.455149","emg","9","13","6","-25","1","0","-6","0","2018-05-04T22:04:01.454253"
"2018-05-04T22:04:01.463002","emg","-15","-37","-62","23","19","-5","-15","-13","2018-05-04T22:04:01.461874"
"2018-05-04T22:04:01.463356","emg","-5","-10","-4","-44","-58","-21","-7","-2","2018-05-04T22:04:01.462359"
"2018-05-04T22:04:01.470501","acc","-234","-2180","1362","gyro","739","7","811","quat","10007","-6021","-5940","9837","2018-05-04T22:04:01.469447"
"2018-05-04T22:04:01.477769","emg","0","4","26","47","37","6","13","13","2018-05-04T22:04:01.476711"
"2018-05-04T22:04:01.478112","emg","2","-3","-25","-52","-33","-2","-5","2","2018-05-04T22:04:01.477184"
"2018-05-04T22:04:01.485382","emg","18","23","34","-13","-4","5","0","-5","2018-05-04T22:04:01.484156"
"2018-05-04T22:04:01.485763","emg","0","7","5","49","34","9","9","6","2018-05-04T22:04:01.484726"
"2018-05-04T22:04:01.493775","acc","-22","-2045","1455","gyro","972","242","765","quat","10013","-5972","-5743","9975","2018-05-04T22:04:01.492708"
"2018-05-04T22:04:01.495032","emg","-3","-19","-8","0","-10","-4","8","13","2018-05-04T22:04:01.494059"
"2018-05-04T22:04:01.495387","emg","5","15","28","22","10","4","1","4","2018-05-04T22:04:01.494575"
"2018-05-04T22:04:01.507789","emg","5","-1","2","-9","-8","-3","-18","-8","2018-05-04T22:04:01.507008"
"2018-05-04T22:04:01.508098","emg","-16","0","-6","-14","-8","-9","9","-7","2018-05-04T22:04:01.507379"
"2018-05-04T22:04:01.509236","acc","149","-1948","1311","gyro","863","565","921","quat","10017","-5974","-5533","10090","2018-05-04T22:04:01.508501"
"2018-05-04T22:04:01.515621","emg","3","9","4","-31","-2","8","4","-3","2018-05-04T22:04:01.514596"
"2018-05-04T22:04:01.515945","emg","-5","-7","19","108","48","-5","-12","-10","2018-05-04T22:04:01.515062"
"2018-05-04T22:04:01.522741","emg","4","4","-4","-1","-2","5","9","8","2018-05-04T22:04:01.521704"
"2018-05-04T22:04:01.523059","emg","-2","-15","-26","-36","-5","0","-6","-5","2018-05-04T22:04:01.522190"
"2018-05-04T22:04:01.530367","acc","474","-1994","1349","gyro","666","842","1022","quat","10023","-6011","-5331","10169","2018-05-04T22:04:01.529379"
"2018-05-04T22:04:01.537822","emg","-6","-3","10","10","-3","-10","-15","-11","2018-05-04T22:04:01.536709"
"2018-05-04T22:04:01.538186","emg","0","-7","-28","-35","-18","3","8","2","2018-05-04T22:04:01.537243"
"2018-05-04T22:04:01.545320","emg","-1","-3","-5","-40","-17","-2","3","6","2018-05-04T22:04:01.544180"
"2018-05-04T22:04:01.545687","emg","0","0","13","-3","7","-1","-8","6","2018-05-04T22:04:01.544739"
"2018-05-04T22:04:01.553714","acc","356","-1791","1534","gyro","835","1457","1282","quat","10048","-6100","-5010","10254","2018-05-04T22:04:01.552539"
"2018-05-04T22:04:01.554814","emg","-1","1","17","55","31","9","9","28","2018-05-04T22:04:01.553940"
"2018-05-04T22:04:01.555262","emg","4","3","14","6","-2","-3","-23","-1","2018-05-04T22:04:01.554299"
"2018-05-04T22:04:01.568506","emg","0","7","11","0","10","6","23","35","2018-05-04T22:04:01.567352"
"2018-05-04T22:04:01.569093","emg","5","0","-5","-28","-21","3","10","-13","2018-05-04T22:04:01.567881"
"2018-05-04T22:04:01.570351","acc","-447","-1721","1604","gyro","649","1414","1244","quat","10033","-6237","-4668","10348","2018-05-04T22:04:01.569589"
"2018-05-04T22:04:01.575675","emg","3","5","-8","-11","-11","-4","0","-35","2018-05-04T22:04:01.574479"
"2018-05-04T22:04:01.576072","emg","7","6","6","3","16","13","8","-26","2018-05-04T22:04:01.575016"
"2018-05-04T22:04:01.591372","emg","-12","6","-12","-14","-27","-13","-9","-31","2018-05-04T22:04:01.590118"
"2018-05-04T22:04:01.591941","emg","2","17","33","12","3","-6","-8","-2","2018-05-04T22:04:01.590717"
"2018-05-04T22:04:01.593201","acc","-56","-1983","1679","gyro","550","1221","1149","quat","10023","-6333","-4401","10416","2018-05-04T22:04:01.592442"
"2018-05-04T22:04:01.597764","emg","-4","-12","4","10","3","-3","15","47","2018-05-04T22:04:01.596707"
"2018-05-04T22:04:01.598126","emg","-1","-5","-1","1","0","0","-9","43","2018-05-04T22:04:01.597215"
"2018-05-04T22:04:01.605396","emg","12","6","8","-21","5","16","5","27","2018-05-04T22:04:01.604250"
"2018-05-04T22:04:01.605760","emg","10","-4","-16","4","5","6","1","3","2018-05-04T22:04:01.604850"
"2018-05-04T22:04:01.612957","acc","-525","-1886","1591","gyro","1271","1365","876","quat","10077","-6380","-4033","10484","2018-05-04T22:04:01.611811"
"2018-05-04T22:04:01.620549","emg","-6","-1","-11","-4","-5","-1","3","-29","2018-05-04T22:04:01.619398"
"2018-05-04T22:04:01.620914","emg","1","3","3","19","28","17","15","-16","2018-05-04T22:04:01.619996"
"2018-05-04T22:04:01.628834","emg","5","4","16","-21","-33","-13","-3","-21","2018-05-04T22:04:01.627686"
"2018-05-04T22:04:01.629200","emg","10","9","15","-6","-8","4","5","-4","2018-05-04T22:04:01.628293"
"2018-05-04T22:04:01.630445","acc","-446","-1905","1578","gyro","1375","1310","921","quat","10129","-6404","-3670","10552","2018-05-04T22:04:01.629575"
"2018-05-04T22:04:01.635604","emg","2","-2","-4","-15","-10","-6","-10","-10","2018-05-04T22:04:01.634468"
"2018-05-04T22:04:01.635969","emg","-18","-16","-14","-3","6","-8","-10","-19","2018-05-04T22:04:01.635060"
"2018-05-04T22:04:01.651328","emg","-1","-1","12","30","18","-5","-15","-5","2018-05-04T22:04:01.650147"
"2018-05-04T22:04:01.651693","emg","-4","0","2","25","24","-2","-7","-2","2018-05-04T22:04:01.650787"
"2018-05-04T22:04:01.652903","acc","-547","-1810","1539","gyro","1429","1286","1168","quat","10148","-6431","-3285","10644","2018-05-04T22:04:01.652071"
"2018-05-04T22:04:01.658167","emg","0","-3","-17","-33","-40","-13","-6","6","2018-05-04T22:04:01.657021"
"2018-05-04T22:04:01.658569","emg","2","-6","-19","-13","-21","-12","-5","2","2018-05-04T22:04:01.657622"
"2018-05-04T22:04:01.665356","emg","-9","-8","-5","7","4","2","1","-5","2018-05-04T22:04:01.664212"
"2018-05-04T22:04:01.665721","emg","-7","-6","-9","1","8","-3","-6","1","2018-05-04T22:04:01.664812"
"2018-05-04T22:04:01.672565","acc","-485","-1718","1482","gyro","1346","1357","1147","quat","10162","-6467","-2912","10717","2018-05-04T22:04:01.671642"
"2018-05-04T22:04:01.680369","emg","3","-2","1","0","-11","-13","-2","8","2018-05-04T22:04:01.679231"
"2018-05-04T22:04:01.680730","emg","0","0","0","-31","-19","-7","-5","-2","2018-05-04T22:04:01.679829"
"2018-05-04T22:04:01.688828","emg","-8","-6","-2","20","5","-5","3","1","2018-05-04T22:04:01.687681"
"2018-05-04T22:04:01.689189","emg","1","-1","2","18","33","17","16","11","2018-05-04T22:04:01.688282"
"2018-05-04T22:04:01.690411","acc","-614","-1783","1526","gyro","1461","1482","1065","quat","10190","-6505","-2519","10767","2018-05-04T22:04:01.689554"
"2018-05-04T22:04:01.695646","emg","-2","3","-7","15","15","14","17","10","2018-05-04T22:04:01.694513"
"2018-05-04T22:04:01.696015","emg","-1","-2","4","-21","-32","-13","-27","-30","2018-05-04T22:04:01.695106"
"2018-05-04T22:04:01.711236","emg","5","-4","-9","-10","12","15","36","40","2018-05-04T22:04:01.710035"
"2018-05-04T22:04:01.711605","emg","-2","-5","5","2","-17","-13","-1","5","2018-05-04T22:04:01.710680"
"2018-05-04T22:04:01.712806","acc","-764","-1903","1479","gyro","1631","1563","1130","quat","10213","-6538","-2079","10819","2018-05-04T22:04:01.711969"
"2018-05-04T22:04:01.718097","emg","-7","-1","-5","17","20","7","-3","-9","2018-05-04T22:04:01.716855"
"2018-05-04T22:04:01.718511","emg","7","10","4","0","-4","3","3","0","2018-05-04T22:04:01.717444"
"2018-05-04T22:04:01.725164","emg","-9","-10","-5","-10","-2","0","-7","-10","2018-05-04T22:04:01.724055"
"2018-05-04T22:04:01.725527","emg","7","2","22","33","12","0","-3","3","2018-05-04T22:04:01.724618"
"2018-05-04T22:04:01.732324","acc","-690","-1678","1366","gyro","1850","1641","1093","quat","10250","-6549","-1607","10858","2018-05-04T22:04:01.731520"
"2018-05-04T22:04:01.740037","emg","-8","-5","-18","-37","-4","0","-2","-5","2018-05-04T22:04:01.739013"
"2018-05-04T22:04:01.740397","emg","-7","-1","13","71","30","-3","-7","-3","2018-05-04T22:04:01.739491"
"2018-05-04T22:04:01.748798","emg","-1","-3","-8","5","10","0","-9","-14","2018-05-04T22:04:01.747686"
"2018-05-04T22:04:01.749166","emg","-4","-1","-8","-33","-25","-2","-1","2","2018-05-04T22:04:01.748221"
"2018-05-04T22:04:01.750214","acc","-703","-1494","1165","gyro","1784","1647","883","quat","10298","-6561","-1155","10862","2018-05-04T22:04:01.749439"
"2018-05-04T22:04:01.755838","emg","2","3","29","24","10","2","0","-1","2018-05-04T22:04:01.754452"
"2018-05-04T22:04:01.756243","emg","2","-2","3","-12","-2","0","3","6","2018-05-04T22:04:01.755154"
"2018-05-04T22:04:01.771155","emg","4","4","-7","-22","-9","-3","-4","4","2018-05-04T22:04:01.770064"
"2018-05-04T22:04:01.771645","emg","-5","-8","-6","23","13","4","1","-3","2018-05-04T22:04:01.770583"
"2018-05-04T22:04:01.772763","acc","-733","-1479","1138","gyro","1613","1581","794","quat","10337","-6579","-739","10850","2018-05-04T22:04:01.772104"
"2018-05-04T22:04:01.777745","emg","7","8","-2","12","18","13","7","4","2018-05-04T22:04:01.776662"
"2018-05-04T22:04:01.778096","emg","0","-9","-11","-21","-11","-3","-12","-10","2018-05-04T22:04:01.777160"
"2018-05-04T22:04:01.785397","emg","-1","-3","30","27","4","-5","14","16","2018-05-04T22:04:01.784208"
"2018-05-04T22:04:01.785786","emg","1","1","-20","-32","-12","0","4","4","2018-05-04T22:04:01.784746"
"2018-05-04T22:04:01.792648","acc","-724","-1277","1021","gyro","1454","1575","710","quat","10371","-6622","-369","10811","2018-05-04T22:04:01.791674"
"2018-05-04T22:04:01.800798","emg","-2","-3","3","2","-5","-9","-14","-8","2018-05-04T22:04:01.799633"
"2018-05-04T22:04:01.801191","emg","-5","-1","-14","-30","-11","1","12","6","2018-05-04T22:04:01.800147"
"2018-05-04T22:04:01.808815","emg","6","6","1","-10","-8","2","-16","-14","2018-05-04T22:04:01.807630"
"2018-05-04T22:04:01.809386","emg","-6","-7","5","48","19","-13","-12","-9","2018-05-04T22:04:01.808162"
"2018-05-04T22:04:01.810695","acc","-619","-1166","985","gyro","1119","1468","604","quat","10393","-6679","-63","10761","2018-05-04T22:04:01.809894"
"2018-05-04T22:04:01.815695","emg","6","4","1","-15","-12","9","18","9","2018-05-04T22:04:01.814517"
"2018-05-04T22:04:01.816083","emg","-9","-14","-7","25","16","-5","-3","-4","2018-05-04T22:04:01.815047"
"2018-05-04T22:04:01.831406","emg","2","1","2","-10","0","8","0","-6","2018-05-04T22:04:01.830176"
"2018-05-04T22:04:01.831979","emg","0","2","-3","-17","-13","-3","1","5","2018-05-04T22:04:01.830757"
"2018-05-04T22:04:01.833244","acc","-506","-1185","838","gyro","948","1301","491","quat","10414","-6738","185","10702","2018-05-04T22:04:01.832484"
"2018-05-04T22:04:01.837986","emg","1","-1","-1","4","6","-4","-10","1","2018-05-04T22:04:01.836789"
"2018-05-04T22:04:01.838412","emg","0","0","-6","-28","-9","5","9","6","2018-05-04T22:04:01.837330"
"2018-05-04T22:04:01.845409","emg","-6","9","-9","-9","-14","-8","-5","-8","2018-05-04T22:04:01.844155"
"2018-05-04T22:04:01.845804","emg","2","-3","-5","31","21","6","-18","-22","2018-05-04T22:04:01.844755"
"2018-05-04T22:04:01.852871","acc","-429","-1060","764","gyro","981","1144","369","quat","10452","-6769","411","10639","2018-05-04T22:04:01.851796"
"2018-05-04T22:04:01.860813","emg","-10","-5","9","6","1","-5","15","14","2018-05-04T22:04:01.859611"
"2018-05-04T22:04:01.861217","emg","9","3","1","-10","-10","2","6","9","2018-05-04T22:04:01.860164"
"2018-05-04T22:04:01.868494","emg","-3","-1","-6","-3","2","3","6","-4","2018-05-04T22:04:01.867299"
"2018-05-04T22:04:01.869066","emg","-6","-1","-9","-19","-13","-5","-6","-5","2018-05-04T22:04:01.867845"
"2018-05-04T22:04:01.870328","acc","-373","-926","667","gyro","919","974","267","quat","10495","-6786","608","10577","2018-05-04T22:04:01.869573"
"2018-05-04T22:04:01.875655","emg","0","1","-4","4","-5","-10","-23","-17","2018-05-04T22:04:01.874458"
"2018-05-04T22:04:01.876042","emg","2","6","11","0","1","5","12","7","2018-05-04T22:04:01.875004"
"2018-05-04T22:04:01.890632","emg","-4","-6","1","7","15","2","0","-2","2018-05-04T22:04:01.889578"
"2018-05-04T22:04:01.891134","emg","0","3","-1","-37","-20","-3","-5","-2","2018-05-04T22:04:01.890024"
"2018-05-04T22:04:01.892230","acc","-305","-794","643","gyro","801","728","201","quat","10538","-6780","761","10528","2018-05-04T22:04:01.891569"
"2018-05-04T22:04:01.897746","emg","-1","-1","7","68","36","2","-2","-4","2018-05-04T22:04:01.896684"
"2018-05-04T22:04:01.898100","emg","-1","0","-6","-32","-29","-16","-4","5","2018-05-04T22:04:01.897173"
"2018-05-04T22:04:01.905177","emg","-2","-3","0","-4","2","-2","-11","-10","2018-05-04T22:04:01.904085"
"2018-05-04T22:04:01.905517","emg","-2","0","3","2","8","11","17","9","2018-05-04T22:04:01.904578"
"2018-05-04T22:04:01.912222","acc","-230","-707","589","gyro","662","425","133","quat","10581","-6752","859","10495","2018-05-04T22:04:01.911477"
"2018-05-04T22:04:01.920150","emg","7","3","-14","-26","-3","7","8","4","2018-05-04T22:04:01.919065"
"2018-05-04T22:04:01.920516","emg","0","2","13","11","7","3","0","-1","2018-05-04T22:04:01.919558"
"2018-05-04T22:04:01.928221","emg","-2","0","14","16","4","-4","-6","-5","2018-05-04T22:04:01.927124"
"2018-05-04T22:04:01.928748","emg","1","-1","-3","-20","-19","-6","0","3","2018-05-04T22:04:01.927629"
"2018-05-04T22:04:01.929869","acc","-152","-594","448","gyro","461","164","-4","quat","10624","-6720","897","10468","2018-05-04T22:04:01.929216"
"2018-05-04T22:04:01.935361","emg","-4","-2","2","4","1","-1","-4","-4","2018-05-04T22:04:01.934288"
"2018-05-04T22:04:01.935700","emg","0","0","-2","2","1","-2","-2","-5","2018-05-04T22:04:01.934796"
"2018-05-04T22:04:01.951369","emg","1","-2","-6","-7","-8","-2","1","3","2018-05-04T22:04:01.950151"
"2018-05-04T22:04:01.951935","emg","-8","-3","4","8","1","-11","-7","-4","2018-05-04T22:04:01.950721"
"2018-05-04T22:04:01.953192","acc","-53","-635","384","gyro","242","-43","-181","quat","10676","-6694","866","10434","2018-05-04T22:04:01.952443"
"2018-05-04T22:04:01.958026","emg","-2","-2","-1","-5","-4","2","-2","-7","2018-05-04T22:04:01.956832"
"2018-05-04T22:04:01.958461","emg","3","3","2","4","10","18","13","8","2018-05-04T22:04:01.957374"
"2018-05-04T22:04:01.965395","emg","0","-1","-5","-3","2","3","-1","1","2018-05-04T22:04:01.964205"
"2018-05-04T22:04:01.965794","emg","-1","-2","-10","-25","-26","-13","-9","-1","2018-05-04T22:04:01.964749"
"2018-05-04T22:04:01.972898","acc","-74","-634","380","gyro","141","-201","-322","quat","10737","-6664","797","10397","2018-05-04T22:04:01.971826"
"2018-05-04T22:04:01.980614","emg","-6","-2","10","20","6","-3","-5","-8","2018-05-04T22:04:01.979412"
"2018-05-04T22:04:01.981004","emg","2","4","-4","-7","-3","0","3","4","2018-05-04T22:04:01.979964"
"2018-05-04T22:04:01.988754","emg","-1","-1","1","9","7","1","2","1","2018-05-04T22:04:01.987681"
"2018-05-04T22:04:01.989156","emg","-1","-2","3","-5","-3","-6","-6","-2","2018-05-04T22:04:01.988215"
"2018-05-04T22:04:01.990339","acc","-181","-607","394","gyro","-81","-374","-485","quat","10797","-6644","679","10356","2018-05-04T22:04:01.989500"
"2018-05-04T22:04:01.994791","emg","-5","-6","-7","-20","-21","-13","-13","-5","2018-05-04T22:04:01.993888"
"2018-05-04T22:04:01.995109","emg","-1","-1","-1","2","9","12","10","4","2018-05-04T22:04:01.994372"
"2018-05-04T22:04:02.010459","emg","-2","-2","-8","-4","-3","1","1","0","2018-05-04T22:04:02.009583"
"2018-05-04T22:04:02.010778","emg","1","0","-4","7","1","-3","4","1","2018-05-04T22:04:02.010008"
"2018-05-04T22:04:02.011890","acc","-197","-669","426","gyro","-412","-567","-723","quat","10859","-6643","482","10302","2018-05-04T22:04:02.011148"
"2018-05-04T22:04:02.017717","emg","-3","-5","-4","-9","-1","-4","-2","-4","2018-05-04T22:04:02.016685"
"2018-05-04T22:04:02.018031","emg","2","8","2","-3","8","3","-2","-1","2018-05-04T22:04:02.017222"
"2018-05-04T22:04:02.025117","emg","-1","-1","3","24","-6","-12","-6","-2","2018-05-04T22:04:02.024089"
"2018-05-04T22:04:02.025434","emg","-4","-5","-8","-34","-26","-8","-1","-4","2018-05-04T22:04:02.024626"
"2018-05-04T22:04:02.032570","acc","-199","-814","506","gyro","-870","-695","-947","quat","10914","-6682","196","10229","2018-05-04T22:04:02.031607"
"2018-05-04T22:04:02.040343","emg","4","0","-8","8","15","11","5","3","2018-05-04T22:04:02.039314"
"2018-05-04T22:04:02.040658","emg","-3","-2","2","17","5","-8","-6","-7","2018-05-04T22:04:02.039855"
"2018-05-04T22:04:02.048831","emg","3","8","3","-6","2","4","3","0","2018-05-04T22:04:02.047668"
"2018-05-04T22:04:02.049198","emg","0","-2","9","14","0","-7","-6","-2","2018-05-04T22:04:02.048268"
"2018-05-04T22:04:02.050439","acc","-441","-1006","627","gyro","-1184","-918","-1079","quat","10950","-6740","-155","10152","2018-05-04T22:04:02.049558"
"2018-05-04T22:04:02.055494","emg","-2","-5","-5","-12","-7","1","2","0","2018-05-04T22:04:02.054427"
"2018-05-04T22:04:02.055809","emg","-11","-7","0","-8","-4","0","-2","-9","2018-05-04T22:04:02.054987"
"2018-05-04T22:04:02.071084","emg","0","-4","-10","-4","-4","-3","0","-1","2018-05-04T22:04:02.069883"
"2018-05-04T22:04:02.071468","emg","0","5","10","6","-3","-6","-5","-3","2018-05-04T22:04:02.070538"
"2018-05-04T22:04:02.072675","acc","-471","-1247","749","gyro","-1230","-1048","-1263","quat","10998","-6788","-545","10054","2018-05-04T22:04:02.071835"
"2018-05-04T22:04:02.077965","emg","5","4","0","8","13","12","7","6","2018-05-04T22:04:02.076797"
"2018-05-04T22:04:02.078330","emg","0","-4","-10","6","-1","-4","0","1","2018-05-04T22:04:02.077395"
"2018-05-04T22:04:02.085524","emg","-3","-6","-9","-36","-25","-10","-3","-4","2018-05-04T22:04:02.084349"
"2018-05-04T22:04:02.085885","emg","2","0","-11","-8","4","1","5","2","2018-05-04T22:04:02.084948"
"2018-05-04T22:04:02.093036","acc","-429","-1482","706","gyro","-1463","-1103","-1596","quat","11055","-6860","-1001","9907","2018-05-04T22:04:02.091847"
"2018-05-04T22:04:02.100619","emg","-1","-3","-1","-4","5","11","5","0","2018-05-04T22:04:02.099457"
"2018-05-04T22:04:02.100980","emg","-2","0","8","6","-8","-10","-6","-2","2018-05-04T22:04:02.100052"
"2018-05-04T22:04:02.108854","emg","2","5","16","12","5","0","-1","-2","2018-05-04T22:04:02.107672"
"2018-05-04T22:04:02.109258","emg","0","0","-8","14","7","0","-4","-1","2018-05-04T22:04:02.108286"
"2018-05-04T22:04:02.110538","acc","-583","-1597","877","gyro","-1506","-1149","-1868","quat","11126","-6901","-1449","9743","2018-05-04T22:04:02.109649"
"2018-05-04T22:04:02.115696","emg","-1","-2","-18","-37","-11","11","7","0","2018-05-04T22:04:02.114531"
"2018-05-04T22:04:02.116108","emg","-2","-3","2","3","5","0","-3","0","2018-05-04T22:04:02.115132"
"2018-05-04T22:04:02.131367","emg","-3","-3","-2","-1","-8","-6","-4","-2","2018-05-04T22:04:02.130159"
"2018-05-04T22:04:02.131731","emg","-1","-5","-4","2","2","5","3","1","2018-05-04T22:04:02.130794"
"2018-05-04T22:04:02.132903","acc","-760","-1679","994","gyro","-1511","-1236","-2069","quat","11204","-6924","-1917","9553","2018-05-04T22:04:02.132087"
"2018-05-04T22:04:02.138035","emg","1","7","6","7","-2","-8","-5","-2","2018-05-04T22:04:02.136852"
"2018-05-04T22:04:02.138429","emg","4","10","25","8","4","3","-2","0","2018-05-04T22:04:02.137467"
"2018-05-04T22:04:02.145235","emg","-2","-6","-8","1","2","2","-1","0","2018-05-04T22:04:02.144059"
"2018-05-04T22:04:02.145663","emg","-2","-1","2","-7","-11","-5","-3","-5","2018-05-04T22:04:02.144726"
"2018-05-04T22:04:02.152737","acc","-814","-1761","997","gyro","-1818","-1340","-2419","quat","11280","-6960","-2450","9314","2018-05-04T22:04:02.151692"
"2018-05-04T22:04:02.160675","emg","-2","-5","3","10","17","11","2","0","2018-05-04T22:04:02.159514"
"2018-05-04T22:04:02.161039","emg","2","-1","-16","-29","-20","-11","-5","0","2018-05-04T22:04:02.160114"
"2018-05-04T22:04:02.168439","emg","1","5","27","43","20","7","6","4","2018-05-04T22:04:02.167262"
"2018-05-04T22:04:02.168826","emg","-3","-5","-21","-22","0","6","1","-1","2018-05-04T22:04:02.167897"
"2018-05-04T22:04:02.170088","acc","-634","-1946","1080","gyro","-2247","-1360","-2757","quat","11340","-7025","-3053","9009","2018-05-04T22:04:02.169229"
"2018-05-04T22:04:02.175683","emg","1","6","3","-6","-3","-7","-1","0","2018-05-04T22:04:02.174509"
"2018-05-04T22:04:02.176043","emg","-2","-4","-2","6","-8","-8","-7","-4","2018-05-04T22:04:02.175119"
"2018-05-04T22:04:02.191477","emg","2","3","2","-3","4","11","6","2","2018-05-04T22:04:02.190161"
"2018-05-04T22:04:02.192055","emg","0","2","6","34","18","-1","-2","-1","2018-05-04T22:04:02.190824"
"2018-05-04T22:04:02.193344","acc","-659","-2009","1177","gyro","-2210","-1279","-2915","quat","11401","-7074","-3643","8667","2018-05-04T22:04:02.192568"
"2018-05-04T22:04:02.198062","emg","-2","0","-4","-2","-11","-7","0","-1","2018-05-04T22:04:02.196839"
"2018-05-04T22:04:02.198501","emg","-3","-3","-1","7","-3","-7","0","-2","2018-05-04T22:04:02.197383"
"2018-05-04T22:04:02.205439","emg","0","2","10","-5","6","12","2","0","2018-05-04T22:04:02.204222"
"2018-05-04T22:04:02.205834","emg","-4","-12","-40","-24","-5","-1","-4","-5","2018-05-04T22:04:02.204773"
"2018-05-04T22:04:02.212963","acc","-647","-2230","1139","gyro","-2286","-1172","-3060","quat","11452","-7126","-4231","8282","2018-05-04T22:04:02.211870"
"2018-05-04T22:04:02.220727","emg","-2","-3","-1","-8","-8","-14","-10","-3","2018-05-04T22:04:02.219555"
"2018-05-04T22:04:02.221109","emg","4","5","15","10","8","7","8","6","2018-05-04T22:04:02.220062"
"2018-05-04T22:04:02.228614","emg","-3","-3","-7","-6","-9","-3","-2","-4","2018-05-04T22:04:02.227422"
"2018-05-04T22:04:02.229188","emg","3","5","12","-6","1","10","7","4","2018-05-04T22:04:02.227964"
"2018-05-04T22:04:02.230494","acc","-358","-2425","1095","gyro","-2259","-924","-3152","quat","11505","-7178","-4786","7851","2018-05-04T22:04:02.229686"
"2018-05-04T22:04:02.235616","emg","-4","-3","12","9","-2","-11","-11","-9","2018-05-04T22:04:02.234422"
"2018-05-04T22:04:02.236002","emg","0","-2","-27","-12","-7","-3","-3","-1","2018-05-04T22:04:02.234939"
"2018-05-04T22:04:02.251447","emg","-4","-2","6","-12","-6","-5","-6","-5","2018-05-04T22:04:02.250207"
"2018-05-04T22:04:02.252053","emg","1","3","8","20","14","15","13","4","2018-05-04T22:04:02.250768"
"2018-05-04T22:04:02.253296","acc","-121","-2490","1206","gyro","-1744","-635","-2856","quat","11571","-7190","-5230","7450","2018-05-04T22:04:02.252522"
"2018-05-04T22:04:02.258053","emg","-2","-1","-3","-3","-14","-19","-7","-3","2018-05-04T22:04:02.256949"
"2018-05-04T22:04:02.258470","emg","1","4","11","5","15","17","6","0","2018-05-04T22:04:02.257556"
"2018-05-04T22:04:02.265377","emg","-1","-2","-12","1","1","-3","-2","-1","2018-05-04T22:04:02.264243"
"2018-05-04T22:04:02.265739","emg","-3","-17","8","5","-1","-3","-3","1","2018-05-04T22:04:02.264777"
"2018-05-04T22:04:02.272723","acc","-250","-2506","1162","gyro","-1529","-445","-2513","quat","11621","-7204","-5594","7084","2018-05-04T22:04:02.271681"
"2018-05-04T22:04:02.280660","emg","0","-3","3","5","-6","-4","-3","-1","2018-05-04T22:04:02.279448"
"2018-05-04T22:04:02.281048","emg","-4","-4","-6","-6","-9","-10","-6","-5","2018-05-04T22:04:02.279983"
"2018-05-04T22:04:02.289271","acc","-352","-2444","1094","gyro","-1549","-341","-2408","quat","11657","-7230","-5929","6718","2018-05-04T22:04:02.288045"
"2018-05-04T22:04:02.290586","emg","0","-3","-9","3","4","2","0","1","2018-05-04T22:04:02.289706"
"2018-05-04T22:04:02.290992","emg","0","4","7","8","-4","1","-2","0","2018-05-04T22:04:02.290066"
"2018-05-04T22:04:02.295547","emg","-1","1","-1","-15","-6","-5","-6","-2","2018-05-04T22:04:02.294230"
"2018-05-04T22:04:02.295941","emg","0","-3","-10","5","1","2","0","0","2018-05-04T22:04:02.294894"
"2018-05-04T22:04:02.311481","acc","-223","-2389","1279","gyro","-1404","-98","-2172","quat","11695","-7260","-6196","6368","2018-05-04T22:04:02.310183"
"2018-05-04T22:04:02.312809","emg","-3","-6","-18","-4","-2","-5","0","-4","2018-05-04T22:04:02.311923"
"2018-05-04T22:04:02.313199","emg","1","7","16","2","2","-12","-11","-4","2018-05-04T22:04:02.312292"
"2018-05-04T22:04:02.318057","emg","1","-2","-10","6","2","17","8","2","2018-05-04T22:04:02.316863"
"2018-05-04T22:04:02.318494","emg","-5","-1","8","0","-11","-13","3","-3","2018-05-04T22:04:02.317385"
"2018-05-04T22:04:02.333867","acc","-199","-2534","1259","gyro","-1306","22","-1735","quat","11711","-7312","-6402","6069","2018-05-04T22:04:02.332590"
"2018-05-04T22:04:02.335215","emg","-1","-3","-1","1","31","22","9","2","2018-05-04T22:04:02.334299"
"2018-05-04T22:04:02.335609","emg","-1","3","5","5","6","1","1","-2","2018-05-04T22:04:02.334717"
"2018-05-04T22:04:02.339911","emg","1","0","10","1","1","-5","-3","-1","2018-05-04T22:04:02.338978"
"2018-05-04T22:04:02.340315","emg","0","6","-25","-29","-33","-10","-7","-3","2018-05-04T22:04:02.339380"
"2018-05-04T22:04:02.348158","acc","-165","-2486","1229","gyro","-1027","47","-1408","quat","11730","-7358","-6500","5868","2018-05-04T22:04:02.347273"
"2018-05-04T22:04:02.349395","emg","-2","-6","2","-1","-10","-10","-4","-1","2018-05-04T22:04:02.348613"
"2018-05-04T22:04:02.349741","emg","-3","-1","-1","-4","-1","-5","-7","-2","2018-05-04T22:04:02.348949"
"2018-05-04T22:04:02.354717","emg","-2","1","0","0","4","1","5","1","2018-05-04T22:04:02.353860"
"2018-05-04T22:04:02.355071","emg","0","1","6","4","1","-3","-5","-3","2018-05-04T22:04:02.354209"
"2018-05-04T22:04:02.371150","acc","-97","-2414","1128","gyro","-626","131","-1182","quat","11769","-7374","-6550","5714","2018-05-04T22:04:02.369841"
