"2018-07-03T18:21:33.080987","emg","-1","0","-2","-1","0","-2","-2","-15","2018-07-03T18:21:33.079807"
"2018-07-03T18:21:33.081396","emg","-1","-1","-1","2","-3","-1","0","-5","2018-07-03T18:21:33.080338"
"2018-07-03T18:21:33.096304","emg","0","0","-2","-3","-3","-2","-2","-9","2018-07-03T18:21:33.095405"
"2018-07-03T18:21:33.096816","emg","-1","0","-2","1","0","0","-2","-18","2018-07-03T18:21:33.095788"
"2018-07-03T18:21:33.097643","acc","1399","-1328","615","gyro","2","-8","9","quat","13134","-7408","-6230","-1498","2018-07-03T18:21:33.096938"
"2018-07-03T18:21:33.103088","emg","-2","-2","-1","0","0","0","0","-24","2018-07-03T18:21:33.102224"
"2018-07-03T18:21:33.103412","emg","1","-1","-3","-5","-2","-1","-2","-23","2018-07-03T18:21:33.102696"
"2018-07-03T18:21:33.110880","emg","-1","-1","0","1","-1","0","-2","-25","2018-07-03T18:21:33.109873"
"2018-07-03T18:21:33.111197","emg","-2","-1","-1","-6","-1","-3","-1","-24","2018-07-03T18:21:33.110361"
"2018-07-03T18:21:33.118383","acc","1411","-1335","599","gyro","-9","-8","15","quat","13134","-7408","-6230","-1498","2018-07-03T18:21:33.117484"
"2018-07-03T18:21:33.125897","emg","-1","-2","-2","-1","2","-1","-1","-22","2018-07-03T18:21:33.124803"
"2018-07-03T18:21:33.126415","emg","-2","1","0","0","1","0","-3","-16","2018-07-03T18:21:33.125267"
"2018-07-03T18:21:33.134087","emg","0","0","1","-1","-1","-1","1","-9","2018-07-03T18:21:33.133089"
"2018-07-03T18:21:33.134587","emg","1","-1","-2","-1","1","0","-1","-10","2018-07-03T18:21:33.133527"
"2018-07-03T18:21:33.135706","acc","1394","-1343","579","gyro","-27","-3","7","quat","13130","-7415","-6230","-1498","2018-07-03T18:21:33.135037"
"2018-07-03T18:21:33.140523","emg","-2","0","-2","-4","-2","-1","-1","-6","2018-07-03T18:21:33.139709"
"2018-07-03T18:21:33.140919","emg","-1","-1","-3","-3","-2","-3","-3","0","2018-07-03T18:21:33.140063"
"2018-07-03T18:21:33.157122","emg","-2","-2","0","0","-2","1","0","-3","2018-07-03T18:21:33.156068"
"2018-07-03T18:21:33.157624","emg","-1","2","2","1","0","1","2","-9","2018-07-03T18:21:33.156531"
"2018-07-03T18:21:33.158735","acc","1398","-1349","593","gyro","-12","-8","10","quat","13130","-7415","-6230","-1498","2018-07-03T18:21:33.158067"
"2018-07-03T18:21:33.163362","emg","-1","-2","-4","4","-1","0","2","-10","2018-07-03T18:21:33.162195"
"2018-07-03T18:21:33.163712","emg","-1","-1","2","0","-1","-1","-2","-10","2018-07-03T18:21:33.162645"
"2018-07-03T18:21:33.170922","emg","0","-1","-1","-4","-3","-2","-1","-9","2018-07-03T18:21:33.169898"
"2018-07-03T18:21:33.171266","emg","0","-3","-1","1","-3","-1","-2","-10","2018-07-03T18:21:33.170365"
"2018-07-03T18:21:33.178953","acc","1390","-1328","594","gyro","-17","-20","-3","quat","13127","-7419","-6233","-1497","2018-07-03T18:21:33.177981"
"2018-07-03T18:21:33.185897","emg","-1","0","1","0","-2","-1","-1","-8","2018-07-03T18:21:33.184853"
"2018-07-03T18:21:33.186247","emg","-1","0","0","-4","-3","2","2","-1","2018-07-03T18:21:33.185339"
"2018-07-03T18:21:33.194127","emg","0","-1","0","0","5","1","0","1","2018-07-03T18:21:33.193127"
"2018-07-03T18:21:33.194625","emg","0","-1","1","-5","1","-1","-4","-2","2018-07-03T18:21:33.193569"
"2018-07-03T18:21:33.195729","acc","1419","-1339","600","gyro","-25","-19","3","quat","13123","-7423","-6236","-1497","2018-07-03T18:21:33.195063"
"2018-07-03T18:21:33.201300","emg","-2","-1","-5","-7","-7","-2","-2","1","2018-07-03T18:21:33.200180"
"2018-07-03T18:21:33.201720","emg","-1","-4","3","-3","-10","-5","0","-1","2018-07-03T18:21:33.200700"
"2018-07-03T18:21:33.217217","emg","2","9","-14","1","3","2","1","3","2018-07-03T18:21:33.216013"
"2018-07-03T18:21:33.217784","emg","0","-4","21","5","3","1","2","2","2018-07-03T18:21:33.216532"
"2018-07-03T18:21:33.219075","acc","1427","-1341","596","gyro","-53","-26","16","quat","13116","-7433","-6238","-1496","2018-07-03T18:21:33.218303"
"2018-07-03T18:21:33.223756","emg","-6","-6","-8","-2","6","3","1","-2","2018-07-03T18:21:33.222568"
"2018-07-03T18:21:33.224156","emg","-1","0","7","-1","-2","0","-4","-3","2018-07-03T18:21:33.223097"
"2018-07-03T18:21:33.231392","emg","3","-7","-6","-2","-5","-6","-2","2","2018-07-03T18:21:33.230140"
"2018-07-03T18:21:33.231796","emg","0","11","-35","-9","2","2","1","-8","2018-07-03T18:21:33.230751"
"2018-07-03T18:21:33.239059","acc","1415","-1322","664","gyro","-191","-100","28","quat","13098","-7459","-6245","-1498","2018-07-03T18:21:33.237962"
"2018-07-03T18:21:33.246343","emg","-3","-8","36","-8","2","-1","-2","-1","2018-07-03T18:21:33.245198"
"2018-07-03T18:21:33.246708","emg","-3","-5","-14","-5","-6","-7","-3","-4","2018-07-03T18:21:33.245786"
"2018-07-03T18:21:33.253644","emg","-4","1","8","30","-1","-12","-1","-1","2018-07-03T18:21:33.252433"
"2018-07-03T18:21:33.254014","emg","4","4","1","23","1","-3","-5","2","2018-07-03T18:21:33.253061"
"2018-07-03T18:21:33.262206","acc","1452","-1313","638","gyro","-500","-188","130","quat","13049","-7536","-6254","-1502","2018-07-03T18:21:33.261112"
"2018-07-03T18:21:33.263189","emg","0","7","-4","8","4","-3","-2","-3","2018-07-03T18:21:33.262424"
"2018-07-03T18:21:33.263542","emg","7","11","-13","-34","-25","6","4","2","2018-07-03T18:21:33.262752"
"2018-07-03T18:21:33.276955","emg","0","-12","-17","-23","14","4","3","-1","2018-07-03T18:21:33.275799"
"2018-07-03T18:21:33.277323","emg","-16","-20","-12","2","21","-8","-3","-4","2018-07-03T18:21:33.276320"
"2018-07-03T18:21:33.278583","acc","1605","-1492","693","gyro","-626","-93","203","quat","12998","-7634","-6239","-1511","2018-07-03T18:21:33.277605"
"2018-07-03T18:21:33.283650","emg","-1","5","-23","-16","-39","-30","-13","-9","2018-07-03T18:21:33.282537"
"2018-07-03T18:21:33.284018","emg","4","0","18","28","17","28","4","2","2018-07-03T18:21:33.283050"
"2018-07-03T18:21:33.291411","emg","-5","8","1","-1","5","22","7","1","2018-07-03T18:21:33.290198"
"2018-07-03T18:21:33.291993","emg","-4","0","12","-19","30","4","1","-4","2018-07-03T18:21:33.290777"
"2018-07-03T18:21:33.299062","acc","1955","-1486","588","gyro","-870","139","164","quat","12930","-7756","-6214","-1576","2018-07-03T18:21:33.297970"
"2018-07-03T18:21:33.306698","emg","0","-6","0","29","-5","-25","-8","2","2018-07-03T18:21:33.305639"
"2018-07-03T18:21:33.307070","emg","-2","-3","-13","-3","-66","-77","-14","-2","2018-07-03T18:21:33.306149"
"2018-07-03T18:21:33.314394","emg","10","3","2","-31","47","48","7","1","2018-07-03T18:21:33.313198"
"2018-07-03T18:21:33.314759","emg","8","-6","-7","32","43","87","14","8","2018-07-03T18:21:33.313840"
"2018-07-03T18:21:33.322373","acc","2480","-1582","544","gyro","-1171","654","521","quat","12866","-7926","-6106","-1674","2018-07-03T18:21:33.321223"
"2018-07-03T18:21:33.323565","emg","-13","19","8","-42","-71","-57","-2","-10","2018-07-03T18:21:33.322616"
"2018-07-03T18:21:33.323971","emg","-5","-1","1","12","101","42","17","7","2018-07-03T18:21:33.323022"
"2018-07-03T18:21:33.337189","emg","3","-24","2","-42","-30","-33","-10","0","2018-07-03T18:21:33.335980"
"2018-07-03T18:21:33.337788","emg","-5","-1","11","24","-82","-31","-18","11","2018-07-03T18:21:33.336499"
"2018-07-03T18:21:33.339051","acc","2682","-1879","550","gyro","-1352","1274","1397","quat","12834","-8170","-5835","-1716","2018-07-03T18:21:33.338276"
"2018-07-03T18:21:33.343767","emg","-9","-18","1","-2","97","87","25","-6","2018-07-03T18:21:33.342594"
"2018-07-03T18:21:33.344163","emg","-1","5","-3","19","-12","-8","-8","-6","2018-07-03T18:21:33.343140"
"2018-07-03T18:21:33.351196","emg","-16","-6","2","5","-32","-43","-5","-4","2018-07-03T18:21:33.349911"
"2018-07-03T18:21:33.351654","emg","19","20","-1","-38","-49","-63","-11","5","2018-07-03T18:21:33.350535"
"2018-07-03T18:21:33.359004","acc","2276","-2078","747","gyro","-1354","1776","2389","quat","12861","-8469","-5352","-1631","2018-07-03T18:21:33.357924"
"2018-07-03T18:21:33.366600","emg","-10","-8","-12","9","-75","-59","-27","0","2018-07-03T18:21:33.365394"
"2018-07-03T18:21:33.367008","emg","-5","6","-6","-18","-40","-53","-11","-7","2018-07-03T18:21:33.365960"
"2018-07-03T18:21:33.373816","emg","22","25","5","31","69","89","16","2","2018-07-03T18:21:33.372666"
"2018-07-03T18:21:33.374211","emg","-14","-6","3","-64","7","78","24","6","2018-07-03T18:21:33.373182"
"2018-07-03T18:21:33.382112","acc","1716","-2196","836","gyro","-1272","1914","2988","quat","12899","-8777","-4783","-1464","2018-07-03T18:21:33.380883"
"2018-07-03T18:21:33.383459","emg","-8","-15","-4","42","123","60","19","8","2018-07-03T18:21:33.382555"
"2018-07-03T18:21:33.383869","emg","3","-2","27","16","-19","-12","-8","7","2018-07-03T18:21:33.382976"
"2018-07-03T18:21:33.397243","emg","-4","-13","-22","-64","-122","-85","-18","-5","2018-07-03T18:21:33.396018"
"2018-07-03T18:21:33.397821","emg","-5","-10","-5","58","-5","-25","-1","-2","2018-07-03T18:21:33.396548"
"2018-07-03T18:21:33.399105","acc","1088","-2394","773","gyro","-1262","2063","3404","quat","12928","-9091","-4137","-1243","2018-07-03T18:21:33.398324"
"2018-07-03T18:21:33.403695","emg","14","12","8","-35","38","31","12","10","2018-07-03T18:21:33.402533"
"2018-07-03T18:21:33.404084","emg","-5","29","-7","32","34","18","-3","0","2018-07-03T18:21:33.403062"
"2018-07-03T18:21:33.411242","emg","-1","-11","10","28","-36","-32","-23","-5","2018-07-03T18:21:33.410062"
"2018-07-03T18:21:33.411631","emg","3","26","-12","-33","-19","-17","-2","-8","2018-07-03T18:21:33.410588"
"2018-07-03T18:21:33.419012","acc","395","-2356","550","gyro","-550","2071","3981","quat","13005","-9314","-3428","-902","2018-07-03T18:21:33.417942"
"2018-07-03T18:21:33.426493","emg","30","-16","3","-1","0","10","0","3","2018-07-03T18:21:33.425324"
"2018-07-03T18:21:33.426889","emg","-10","-8","-9","16","-12","2","-1","-22","2018-07-03T18:21:33.425835"
"2018-07-03T18:21:33.433877","emg","12","27","5","-2","5","-1","7","-3","2018-07-03T18:21:33.432666"
"2018-07-03T18:21:33.434269","emg","-11","-14","2","-9","7","1","1","6","2018-07-03T18:21:33.433240"
"2018-07-03T18:21:33.442235","acc","-686","-2062","260","gyro","39","1787","4253","quat","13098","-9449","-2716","-459","2018-07-03T18:21:33.441017"
"2018-07-03T18:21:33.443511","emg","-30","29","3","27","-2","-2","11","79","2018-07-03T18:21:33.442670"
"2018-07-03T18:21:33.443919","emg","-11","-43","-3","-23","6","17","-23","22","2018-07-03T18:21:33.443036"
"2018-07-03T18:21:33.457239","emg","-4","-5","0","4","1","-1","-10","-74","2018-07-03T18:21:33.456038"
"2018-07-03T18:21:33.457809","emg","10","-8","6","12","14","-17","41","-23","2018-07-03T18:21:33.456562"
"2018-07-03T18:21:33.459090","acc","-1175","-1616","-23","gyro","167","1323","4183","quat","13154","-9546","-2068","28","2018-07-03T18:21:33.458322"
"2018-07-03T18:21:33.463693","emg","10","16","-10","-7","-44","-13","-17","69","2018-07-03T18:21:33.462529"
"2018-07-03T18:21:33.464081","emg","38","58","4","-27","10","10","9","-21","2018-07-03T18:21:33.463052"
"2018-07-03T18:21:33.471128","emg","-51","-64","7","18","17","9","-18","43","2018-07-03T18:21:33.469975"
"2018-07-03T18:21:33.471517","emg","-7","12","12","15","-7","-5","-21","-41","2018-07-03T18:21:33.470490"
"2018-07-03T18:21:33.479019","acc","-824","-1150","113","gyro","-6","696","4090","quat","13151","-9636","-1523","556","2018-07-03T18:21:33.477941"
"2018-07-03T18:21:33.486562","emg","25","-7","1","24","-8","-7","6","-43","2018-07-03T18:21:33.485343"
"2018-07-03T18:21:33.486952","emg","32","20","-10","-24","-13","3","5","12","2018-07-03T18:21:33.485923"
"2018-07-03T18:21:33.494045","emg","-36","2","-19","6","35","-3","6","7","2018-07-03T18:21:33.492836"
"2018-07-03T18:21:33.494440","emg","13","34","7","3","-3","-7","-8","0","2018-07-03T18:21:33.493408"
"2018-07-03T18:21:33.502532","acc","-174","-1153","121","gyro","-806","-310","3500","quat","13027","-9804","-1200","1079","2018-07-03T18:21:33.501285"
"2018-07-03T18:21:33.503812","emg","-27","-31","-18","-28","-13","11","1","-5","2018-07-03T18:21:33.502968"
"2018-07-03T18:21:33.504218","emg","-4","-17","-2","15","-19","-24","-4","0","2018-07-03T18:21:33.503338"
"2018-07-03T18:21:33.516790","emg","34","14","-14","-52","-35","22","-4","-23","2018-07-03T18:21:33.515712"
"2018-07-03T18:21:33.517290","emg","0","-32","-2","39","49","21","6","28","2018-07-03T18:21:33.516192"
"2018-07-03T18:21:33.518420","acc","415","-1852","337","gyro","-908","-882","2703","quat","12879","-9955","-1055","1538","2018-07-03T18:21:33.517747"
"2018-07-03T18:21:33.523022","emg","26","30","-12","-11","4","6","2","-25","2018-07-03T18:21:33.522209"
"2018-07-03T18:21:33.523384","emg","-34","-21","45","63","-13","5","2","3","2018-07-03T18:21:33.522567"
"2018-07-03T18:21:33.531089","emg","-34","-5","4","17","7","4","14","11","2018-07-03T18:21:33.530066"
"2018-07-03T18:21:33.531430","emg","-22","-12","7","-22","9","-24","-11","1","2018-07-03T18:21:33.530517"
"2018-07-03T18:21:33.547285","acc","688","-2003","782","gyro","-380","-626","1662","quat","12805","-10008","-983","1824","2018-07-03T18:21:33.546062"
"2018-07-03T18:21:33.548577","emg","3","-28","-16","8","-35","-12","-11","-12","2018-07-03T18:21:33.547731"
"2018-07-03T18:21:33.549024","emg","39","-12","1","10","31","20","21","24","2018-07-03T18:21:33.548094"
"2018-07-03T18:21:33.553341","emg","-10","44","-5","-4","-6","-14","-7","-75","2018-07-03T18:21:33.552306"
"2018-07-03T18:21:33.553757","emg","20","-3","-7","-12","-19","-9","-7","15","2018-07-03T18:21:33.552779"
"2018-07-03T18:21:33.562462","acc","383","-1050","952","gyro","-75","-356","1112","quat","12813","-9969","-942","1997","2018-07-03T18:21:33.561240"
"2018-07-03T18:21:33.563730","emg","-29","16","11","0","18","-5","-2","-52","2018-07-03T18:21:33.562895"
"2018-07-03T18:21:33.564138","emg","3","-16","-24","-33","-7","3","6","35","2018-07-03T18:21:33.563260"
"2018-07-03T18:21:33.577283","emg","10","2","16","38","27","6","0","32","2018-07-03T18:21:33.576046"
"2018-07-03T18:21:33.577862","emg","-3","-2","-9","-21","-20","-13","-12","-19","2018-07-03T18:21:33.576561"
"2018-07-03T18:21:33.579127","acc","455","-1321","1010","gyro","-111","-241","1066","quat","12818","-9936","-900","2145","2018-07-03T18:21:33.578366"
"2018-07-03T18:21:33.583700","emg","12","0","9","5","-12","-6","-33","0","2018-07-03T18:21:33.582548"
"2018-07-03T18:21:33.584098","emg","-17","8","-9","-9","6","-7","-1","-4","2018-07-03T18:21:33.583066"
"2018-07-03T18:21:33.591359","emg","7","-10","6","12","12","9","45","-7","2018-07-03T18:21:33.590085"
"2018-07-03T18:21:33.591737","emg","2","2","3","2","-5","2","-86","-7","2018-07-03T18:21:33.590769"
"2018-07-03T18:21:33.598161","acc","303","-2136","702","gyro","-105","511","767","quat","12806","-9955","-785","2168","2018-07-03T18:21:33.597364"
"2018-07-03T18:21:33.605686","emg","-5","-8","0","-1","-5","8","100","-17","2018-07-03T18:21:33.604740"
"2018-07-03T18:21:33.606008","emg","-2","10","-3","-14","22","19","-11","3","2018-07-03T18:21:33.605178"
"2018-07-03T18:21:33.613099","emg","9","-11","-1","-1","-17","-15","6","-8","2018-07-03T18:21:33.612206"
"2018-07-03T18:21:33.613477","emg","6","-15","-12","-14","-11","-2","-3","14","2018-07-03T18:21:33.612648"
"2018-07-03T18:21:33.620696","acc","-388","-1810","414","gyro","254","882","416","quat","12824","-9951","-596","2143","2018-07-03T18:21:33.619877"
"2018-07-03T18:21:33.627997","emg","-12","2","12","6","-2","-12","-30","-28","2018-07-03T18:21:33.627181"
"2018-07-03T18:21:33.628363","emg","9","9","-19","-13","-12","-5","-4","-37","2018-07-03T18:21:33.627548"
"2018-07-03T18:21:33.637109","emg","27","-4","-1","-54","-26","1","6","45","2018-07-03T18:21:33.636055"
"2018-07-03T18:21:33.637612","emg","-42","-33","-7","58","26","-1","13","-25","2018-07-03T18:21:33.636512"
"2018-07-03T18:21:33.638707","acc","-881","-1650","-41","gyro","203","507","410","quat","12805","-9977","-425","2181","2018-07-03T18:21:33.638049"
"2018-07-03T18:21:33.643574","emg","41","52","10","-51","0","11","-14","18","2018-07-03T18:21:33.642509"
"2018-07-03T18:21:33.643918","emg","-19","-32","5","-42","-9","7","30","4","2018-07-03T18:21:33.642997"
"2018-07-03T18:21:33.659233","emg","-1","0","-25","-39","-27","-16","-35","5","2018-07-03T18:21:33.658185"
"2018-07-03T18:21:33.659729","emg","0","3","5","20","6","17","17","-1","2018-07-03T18:21:33.658670"
"2018-07-03T18:21:33.660874","acc","-830","-2026","-263","gyro","122","-294","243","quat","12758","-10017","-397","2272","2018-07-03T18:21:33.660185"
"2018-07-03T18:21:33.666253","emg","2","10","-14","-31","-33","-22","-8","-11","2018-07-03T18:21:33.665203"
"2018-07-03T18:21:33.666592","emg","-9","-16","5","41","43","4","-1","21","2018-07-03T18:21:33.665684"
"2018-07-03T18:21:33.674051","emg","2","-18","4","106","20","-6","-1","0","2018-07-03T18:21:33.672903"
"2018-07-03T18:21:33.674431","emg","-1","4","5","-18","-16","-7","6","-2","2018-07-03T18:21:33.673418"
"2018-07-03T18:21:33.680827","acc","-542","-1911","-56","gyro","175","-804","152","quat","12735","-10016","-468","2391","2018-07-03T18:21:33.679977"
"2018-07-03T18:21:33.689028","emg","-15","-19","-7","-26","-9","0","3","14","2018-07-03T18:21:33.687795"
"2018-07-03T18:21:33.689379","emg","7","21","-5","3","9","19","-1","-17","2018-07-03T18:21:33.688434"
"2018-07-03T18:21:33.696364","emg","-1","12","17","44","23","3","-7","11","2018-07-03T18:21:33.695407"
"2018-07-03T18:21:33.696751","emg","-16","-7","-9","54","6","-3","11","1","2018-07-03T18:21:33.695852"
"2018-07-03T18:21:33.697768","acc","149","-2007","573","gyro","-91","-718","40","quat","12728","-10003","-598","2451","2018-07-03T18:21:33.696983"
"2018-07-03T18:21:33.702987","emg","10","-1","-13","25","0","-11","-14","3","2018-07-03T18:21:33.702165"
"2018-07-03T18:21:33.703355","emg","-6","-17","5","22","-16","-14","-3","-9","2018-07-03T18:21:33.702537"
"2018-07-03T18:21:33.719173","emg","1","6","17","-21","2","11","9","2","2018-07-03T18:21:33.718133"
"2018-07-03T18:21:33.719664","emg","6","19","5","6","4","8","5","15","2018-07-03T18:21:33.718604"
"2018-07-03T18:21:33.720826","acc","459","-1953","1032","gyro","39","-159","-7","quat","12769","-9950","-670","2433","2018-07-03T18:21:33.720102"
"2018-07-03T18:21:33.726285","emg","2","-19","0","2","3","1","-12","-7","2018-07-03T18:21:33.725233"
"2018-07-03T18:21:33.726631","emg","-16","-13","-7","-16","-10","-1","-1","-8","2018-07-03T18:21:33.725721"
"2018-07-03T18:21:33.733823","emg","3","6","2","-4","-8","-13","-16","-2","2018-07-03T18:21:33.732729"
"2018-07-03T18:21:33.734139","emg","10","4","-4","-42","-7","4","16","6","2018-07-03T18:21:33.733302"
"2018-07-03T18:21:33.740665","acc","218","-1918","1020","gyro","157","478","96","quat","12820","-9902","-622","2375","2018-07-03T18:21:33.739828"
"2018-07-03T18:21:33.748626","emg","-1","-2","3","18","5","-8","-16","-16","2018-07-03T18:21:33.747581"
"2018-07-03T18:21:33.748946","emg","-17","-18","-3","-8","8","3","-7","-13","2018-07-03T18:21:33.748078"
"2018-07-03T18:21:33.757041","emg","3","5","-5","-12","-5","5","9","1","2018-07-03T18:21:33.755896"
"2018-07-03T18:21:33.757412","emg","4","17","-2","-16","-8","1","-82","-60","2018-07-03T18:21:33.756422"
"2018-07-03T18:21:33.758525","acc","-331","-1979","710","gyro","214","824","128","quat","12852","-9883","-481","2311","2018-07-03T18:21:33.757703"
"2018-07-03T18:21:33.763213","emg","-12","-23","-2","-2","6","6","114","112","2018-07-03T18:21:33.762265"
"2018-07-03T18:21:33.763521","emg","5","7","2","3","-14","-5","-46","-27","2018-07-03T18:21:33.762699"
"2018-07-03T18:21:33.778988","emg","0","-12","0","7","13","8","-17","-13","2018-07-03T18:21:33.777954"
"2018-07-03T18:21:33.779316","emg","2","1","-2","-21","-10","-13","-9","-8","2018-07-03T18:21:33.778457"
"2018-07-03T18:21:33.780362","acc","-904","-1983","150","gyro","166","635","37","quat","12842","-9910","-336","2280","2018-07-03T18:21:33.779688"
"2018-07-03T18:21:33.785461","emg","0","-2","4","15","-5","-10","-41","-40","2018-07-03T18:21:33.784666"
"2018-07-03T18:21:33.785765","emg","2","9","-9","-22","-9","-2","-1","-1","2018-07-03T18:21:33.785034"
"2018-07-03T18:21:33.793458","emg","-1","6","4","-13","-1","-1","15","23","2018-07-03T18:21:33.792317"
"2018-07-03T18:21:33.793904","emg","4","-17","0","-13","7","-10","16","6","2018-07-03T18:21:33.792857"
"2018-07-03T18:21:33.801457","acc","-1241","-1960","-245","gyro","21","18","-21","quat","12789","-9971","-265","2322","2018-07-03T18:21:33.800355"
"2018-07-03T18:21:33.808570","emg","1","1","-6","20","-18","6","-24","-18","2018-07-03T18:21:33.807555"
"2018-07-03T18:21:33.808925","emg","-5","-8","-4","-39","-16","-2","15","7","2018-07-03T18:21:33.808047"
"2018-07-03T18:21:33.816468","emg","-4","3","12","-2","-17","-17","-13","-11","2018-07-03T18:21:33.815460"
"2018-07-03T18:21:33.816826","emg","11","6","6","25","13","-4","19","19","2018-07-03T18:21:33.815959"
"2018-07-03T18:21:33.817745","acc","-1154","-1664","-253","gyro","-106","-873","-26","quat","12724","-10020","-326","2456","2018-07-03T18:21:33.817085"
"2018-07-03T18:21:33.823481","emg","-18","-30","19","-17","11","6","-12","-19","2018-07-03T18:21:33.822471"
"2018-07-03T18:21:33.823800","emg","1","5","-2","18","-26","-19","-6","-6","2018-07-03T18:21:33.822963"
"2018-07-03T18:21:33.839310","emg","2","16","-2","12","12","13","4","5","2018-07-03T18:21:33.838178"
"2018-07-03T18:21:33.839724","emg","-8","-7","-2","-28","-17","-5","12","11","2018-07-03T18:21:33.838696"
"2018-07-03T18:21:33.840932","acc","-375","-1779","241","gyro","-200","-1253","0","quat","12682","-10030","-498","2596","2018-07-03T18:21:33.840009"
"2018-07-03T18:21:33.845782","emg","4","5","-12","16","28","5","-10","-1","2018-07-03T18:21:33.844810"
"2018-07-03T18:21:33.846201","emg","6","-4","8","17","11","-3","1","0","2018-07-03T18:21:33.845236"
"2018-07-03T18:21:33.854036","emg","1","0","-10","-21","6","3","2","3","2018-07-03T18:21:33.852887"
"2018-07-03T18:21:33.854437","emg","5","18","-2","12","-1","-3","13","8","2018-07-03T18:21:33.853414"
"2018-07-03T18:21:33.861695","acc","182","-1872","860","gyro","-108","-860","43","quat","12691","-9990","-648","2673","2018-07-03T18:21:33.860493"
"2018-07-03T18:21:33.868264","emg","-3","-7","-8","6","1","5","-11","-14","2018-07-03T18:21:33.867331"
"2018-07-03T18:21:33.868661","emg","6","4","-2","-7","6","-2","-1","0","2018-07-03T18:21:33.867819"
"2018-07-03T18:21:33.876795","emg","-10","-9","-14","9","0","-2","-2","-2","2018-07-03T18:21:33.875575"
"2018-07-03T18:21:33.877173","emg","3","-18","-4","-15","-9","-10","-1","-3","2018-07-03T18:21:33.876131"
"2018-07-03T18:21:33.878317","acc","455","-1904","1177","gyro","61","-347","156","quat","12738","-9917","-728","2700","2018-07-03T18:21:33.877470"
"2018-07-03T18:21:33.883501","emg","-1","3","3","8","-3","5","-11","-8","2018-07-03T18:21:33.882380"
"2018-07-03T18:21:33.883911","emg","-3","10","5","18","3","8","4","2","2018-07-03T18:21:33.882961"
"2018-07-03T18:21:33.899428","emg","4","2","0","-18","-6","2","4","7","2018-07-03T18:21:33.898279"
"2018-07-03T18:21:33.900002","emg","-7","-8","-4","-18","-1","-6","-13","-5","2018-07-03T18:21:33.898794"
"2018-07-03T18:21:33.901361","acc","474","-1977","1036","gyro","127","229","254","quat","12784","-9866","-720","2675","2018-07-03T18:21:33.900540"
"2018-07-03T18:21:33.906082","emg","-6","1","6","-4","-2","-22","-12","-40","2018-07-03T18:21:33.904928"
"2018-07-03T18:21:33.906476","emg","6","9","-1","9","3","-1","15","41","2018-07-03T18:21:33.905437"
"2018-07-03T18:21:33.913792","emg","-4","-5","-9","-11","-5","4","1","-3","2018-07-03T18:21:33.912632"
"2018-07-03T18:21:33.914184","emg","-7","-13","-1","0","-3","22","23","15","2018-07-03T18:21:33.913152"
"2018-07-03T18:21:33.921581","acc","-43","-1986","612","gyro","157","597","239","quat","12804","-9858","-624","2632","2018-07-03T18:21:33.920466"
"2018-07-03T18:21:33.929009","emg","2","-1","0","-1","4","-2","-15","-10","2018-07-03T18:21:33.927790"
"2018-07-03T18:21:33.929394","emg","-4","-1","0","-4","2","-1","-6","-12","2018-07-03T18:21:33.928316"
"2018-07-03T18:21:33.937320","emg","1","1","-2","0","-2","-8","-20","-7","2018-07-03T18:21:33.936014"
"2018-07-03T18:21:33.937894","emg","5","14","4","-2","-10","3","-1","-3","2018-07-03T18:21:33.936685"
"2018-07-03T18:21:33.939183","acc","-638","-2018","163","gyro","105","528","100","quat","12788","-9892","-512","2605","2018-07-03T18:21:33.938415"
"2018-07-03T18:21:33.943343","emg","-3","-6","-1","7","-4","-1","11","13","2018-07-03T18:21:33.942311"
"2018-07-03T18:21:33.943767","emg","0","-4","-4","-9","-4","-8","-15","-16","2018-07-03T18:21:33.942808"
"2018-07-03T18:21:33.959176","emg","-7","-12","-3","49","22","11","7","10","2018-07-03T18:21:33.958118"
"2018-07-03T18:21:33.959746","emg","-7","-4","-12","-4","27","11","3","-7","2018-07-03T18:21:33.958604"
"2018-07-03T18:21:33.960964","acc","-904","-1945","-120","gyro","61","157","-30","quat","12751","-9941","-448","2611","2018-07-03T18:21:33.960268"
"2018-07-03T18:21:33.965598","emg","6","15","-1","-14","-8","4","-5","5","2018-07-03T18:21:33.964751"
"2018-07-03T18:21:33.965961","emg","-5","-6","-11","7","-7","-9","-3","-3","2018-07-03T18:21:33.965131"
"2018-07-03T18:21:33.982130","acc","-768","-1850","0","gyro","-88","-431","-148","quat","12709","-9981","-492","2658","2018-07-03T18:21:33.981045"
"2018-07-03T18:21:33.983277","emg","-3","-8","17","24","-8","-13","-3","-8","2018-07-03T18:21:33.982509"
"2018-07-03T18:21:33.983647","emg","5","17","-15","10","6","13","14","10","2018-07-03T18:21:33.982842"
"2018-07-03T18:21:33.988741","emg","3","-2","17","12","-6","0","-4","2","2018-07-03T18:21:33.987657"
"2018-07-03T18:21:33.989086","emg","-12","-16","2","-15","30","12","7","-5","2018-07-03T18:21:33.988142"
"2018-07-03T18:21:33.996905","acc","-239","-2031","485","gyro","-179","-674","-160","quat","12688","-9988","-613","2703","2018-07-03T18:21:33.995778"
"2018-07-03T18:21:33.998072","emg","-4","3","-6","-5","-28","-13","-4","-4","2018-07-03T18:21:33.997296"
"2018-07-03T18:21:33.998429","emg","6","-2","-20","19","19","-8","-10","-1","2018-07-03T18:21:33.997647"
"2018-07-03T18:21:34.003569","emg","-1","13","2","-14","-14","6","4","12","2018-07-03T18:21:34.002514"
"2018-07-03T18:21:34.003921","emg","3","-10","1","-4","-4","-6","4","-8","2018-07-03T18:21:34.003014"
"2018-07-03T18:21:34.019248","acc","137","-2075","983","gyro","-38","-334","-172","quat","12716","-9947","-710","2696","2018-07-03T18:21:34.018164"
"2018-07-03T18:21:34.020370","emg","3","-1","7","-20","1","22","7","4","2018-07-03T18:21:34.019625"
"2018-07-03T18:21:34.020770","emg","-2","4","6","20","6","-3","-2","2","2018-07-03T18:21:34.019961"
"2018-07-03T18:21:34.025984","emg","1","1","-2","-17","-4","-2","-3","-10","2018-07-03T18:21:34.024936"
"2018-07-03T18:21:34.026323","emg","-2","3","6","13","-16","-12","-5","-7","2018-07-03T18:21:34.025412"
"2018-07-03T18:21:34.042412","acc","240","-1995","1132","gyro","92","96","-49","quat","12768","-9890","-734","2658","2018-07-03T18:21:34.041192"
"2018-07-03T18:21:34.043748","emg","1","7","-2","-11","26","11","8","7","2018-07-03T18:21:34.042903"
"2018-07-03T18:21:34.044160","emg","-2","-7","8","-1","-18","-6","-3","0","2018-07-03T18:21:34.043280"
"2018-07-03T18:21:34.048960","emg","-5","-10","1","5","6","-2","0","0","2018-07-03T18:21:34.047758"
"2018-07-03T18:21:34.049356","emg","-1","10","-4","-9","-12","0","-2","-4","2018-07-03T18:21:34.048284"
"2018-07-03T18:21:34.057328","acc","-55","-1912","896","gyro","113","443","161","quat","12801","-9860","-666","2626","2018-07-03T18:21:34.056084"
"2018-07-03T18:21:34.058704","emg","-2","-10","-9","-4","-3","-3","0","2","2018-07-03T18:21:34.057806"
"2018-07-03T18:21:34.059109","emg","3","9","10","-7","-7","-3","-5","-3","2018-07-03T18:21:34.058211"
"2018-07-03T18:21:34.063326","emg","-2","-5","-8","-2","2","0","2","0","2018-07-03T18:21:34.062298"
"2018-07-03T18:21:34.063726","emg","-6","1","-5","-11","-6","-2","-2","-1","2018-07-03T18:21:34.062716"
"2018-07-03T18:21:34.079782","acc","-355","-2083","599","gyro","227","611","243","quat","12822","-9848","-544","2599","2018-07-03T18:21:34.078571"
"2018-07-03T18:21:34.081115","emg","6","5","1","9","4","-3","-7","-4","2018-07-03T18:21:34.080233"
"2018-07-03T18:21:34.081537","emg","-4","-9","2","-19","-8","-2","13","-6","2018-07-03T18:21:34.080660"
"2018-07-03T18:21:34.085770","emg","4","7","3","0","6","3","6","21","2018-07-03T18:21:34.084823"
"2018-07-03T18:21:34.086210","emg","4","8","-1","10","7","14","-15","-22","2018-07-03T18:21:34.085236"
"2018-07-03T18:21:34.102325","acc","-703","-1942","308","gyro","249","422","121","quat","12828","-9847","-435","2591","2018-07-03T18:21:34.101142"
"2018-07-03T18:21:34.104291","emg","3","-4","6","-7","-10","-18","-4","19","2018-07-03T18:21:34.103238"
"2018-07-03T18:21:34.104656","emg","-5","-5","-4","-2","5","10","21","-4","2018-07-03T18:21:34.103794"
"2018-07-03T18:21:34.108755","emg","5","1","0","-10","-14","-4","-7","1","2018-07-03T18:21:34.107710"
"2018-07-03T18:21:34.109088","emg","-3","-3","11","34","19","0","5","7","2018-07-03T18:21:34.108225"
"2018-07-03T18:21:34.117002","acc","-869","-1916","18","gyro","65","-41","16","quat","12797","-9881","-395","2624","2018-07-03T18:21:34.116114"
"2018-07-03T18:21:34.117889","emg","-3","-8","-1","-26","-6","0","-5","-6","2018-07-03T18:21:34.117249"
"2018-07-03T18:21:34.118195","emg","10","14","-8","-1","26","-9","-6","0","2018-07-03T18:21:34.117545"
"2018-07-03T18:21:34.123055","emg","-1","-18","-13","30","10","1","-3","-4","2018-07-03T18:21:34.122234"
"2018-07-03T18:21:34.123370","emg","-5","2","6","-37","-16","5","3","0","2018-07-03T18:21:34.122655"
"2018-07-03T18:21:34.139241","acc","-687","-1944","37","gyro","-67","-522","-90","quat","12756","-9915","-453","2682","2018-07-03T18:21:34.138223"
"2018-07-03T18:21:34.140203","emg","1","5","5","8","-4","-13","-6","-8","2018-07-03T18:21:34.139493"
"2018-07-03T18:21:34.140506","emg","-4","-9","-5","-17","-18","-11","-7","1","2018-07-03T18:21:34.139805"
"2018-07-03T18:21:34.145893","emg","-1","14","-7","-4","2","2","6","-3","2018-07-03T18:21:34.144867"
"2018-07-03T18:21:34.146203","emg","2","-1","9","34","24","-2","-9","-2","2018-07-03T18:21:34.145400"
"2018-07-03T18:21:34.161816","acc","-258","-1894","428","gyro","-120","-697","-69","quat","12736","-9918","-564","2744","2018-07-03T18:21:34.160768"
"2018-07-03T18:21:34.162764","emg","-3","-11","13","-12","-7","0","4","-7","2018-07-03T18:21:34.162040"
"2018-07-03T18:21:34.163066","emg","-1","6","3","-26","-15","28","3","3","2018-07-03T18:21:34.162390"
"2018-07-03T18:21:34.168030","emg","-4","0","0","27","19","-5","-3","0","2018-07-03T18:21:34.167205"
"2018-07-03T18:21:34.168351","emg","0","-6","-20","-49","-20","-8","0","1","2018-07-03T18:21:34.167658"
"2018-07-03T18:21:34.177075","acc","-12","-1925","779","gyro","-119","-430","-15","quat","12739","-9901","-649","2775","2018-07-03T18:21:34.176006"
"2018-07-03T18:21:34.178021","emg","0","9","-6","-11","-13","-7","-4","-5","2018-07-03T18:21:34.177294"
"2018-07-03T18:21:34.178324","emg","-6","-10","5","18","8","-8","-3","0","2018-07-03T18:21:34.177650"
"2018-07-03T18:21:34.183524","emg","4","-7","-13","1","-2","-1","-3","-4","2018-07-03T18:21:34.182516"
"2018-07-03T18:21:34.183847","emg","-11","-7","-2","12","2","5","4","5","2018-07-03T18:21:34.183041"
"2018-07-03T18:21:34.199216","acc","83","-1834","938","gyro","-36","-176","115","quat","12759","-9867","-687","2795","2018-07-03T18:21:34.198200"
"2018-07-03T18:21:34.200235","emg","6","1","-7","-2","8","7","0","-5","2018-07-03T18:21:34.199441"
"2018-07-03T18:21:34.200550","emg","-1","2","9","-10","-20","-17","-8","-4","2018-07-03T18:21:34.199829"
"2018-07-03T18:21:34.206224","emg","-6","-8","3","2","5","4","4","-1","2018-07-03T18:21:34.205293"
"2018-07-03T18:21:34.206540","emg","4","1","-2","1","-6","-2","1","0","2018-07-03T18:21:34.205745"
"2018-07-03T18:21:34.222386","acc","90","-1774","836","gyro","26","136","209","quat","12779","-9842","-671","2793","2018-07-03T18:21:34.221251"
"2018-07-03T18:21:34.223526","emg","-3","1","-6","-8","7","5","0","-3","2018-07-03T18:21:34.222630"
"2018-07-03T18:21:34.223876","emg","-1","1","-2","12","-9","-6","-2","-5","2018-07-03T18:21:34.223030"
"2018-07-03T18:21:34.228705","emg","-5","-1","0","-9","-3","-3","-7","0","2018-07-03T18:21:34.227590"
"2018-07-03T18:21:34.229161","emg","-2","-5","1","-12","-6","-1","4","1","2018-07-03T18:21:34.228106"
"2018-07-03T18:21:34.237082","acc","-105","-1752","587","gyro","91","383","71","quat","12796","-9834","-618","2755","2018-07-03T18:21:34.235894"
"2018-07-03T18:21:34.238154","emg","-3","0","-7","8","4","1","-1","-1","2018-07-03T18:21:34.237317"
"2018-07-03T18:21:34.238507","emg","-2","-4","0","-1","-1","-3","-1","1","2018-07-03T18:21:34.237728"
"2018-07-03T18:21:34.243654","emg","0","0","6","-9","-9","-5","-1","-7","2018-07-03T18:21:34.242531"
"2018-07-03T18:21:34.244022","emg","-3","1","-1","-4","-4","1","-2","-1","2018-07-03T18:21:34.243112"
"2018-07-03T18:21:34.259535","acc","-340","-1610","365","gyro","172","418","-159","quat","12815","-9830","-565","2693","2018-07-03T18:21:34.258380"
"2018-07-03T18:21:34.260641","emg","-4","-3","-6","9","4","8","2","1","2018-07-03T18:21:34.259778"
"2018-07-03T18:21:34.261017","emg","1","-1","5","-1","7","-3","-6","-1","2018-07-03T18:21:34.260177"
"2018-07-03T18:21:34.266488","emg","0","3","-3","-11","5","-1","-1","0","2018-07-03T18:21:34.265328"
"2018-07-03T18:21:34.266862","emg","-3","-4","-3","11","-2","-5","3","3","2018-07-03T18:21:34.265905"
"2018-07-03T18:21:34.282446","acc","-544","-1564","257","gyro","114","278","-366","quat","12824","-9837","-539","2628","2018-07-03T18:21:34.281260"
"2018-07-03T18:21:34.283590","emg","1","1","-6","6","-3","0","2","-2","2018-07-03T18:21:34.282693"
"2018-07-03T18:21:34.283947","emg","-2","-4","10","-10","-9","1","0","0","2018-07-03T18:21:34.283101"
"2018-07-03T18:21:34.288276","emg","4","7","9","-5","0","6","-2","-3","2018-07-03T18:21:34.287285"
"2018-07-03T18:21:34.288580","emg","-9","-9","-14","3","-3","-6","-3","-4","2018-07-03T18:21:34.287762"
"2018-07-03T18:21:34.296420","acc","-571","-1709","207","gyro","18","8","-532","quat","12821","-9856","-570","2569","2018-07-03T18:21:34.295551"
"2018-07-03T18:21:34.297393","emg","-7","-3","4","-11","0","0","-1","-2","2018-07-03T18:21:34.296704"
"2018-07-03T18:21:34.297699","emg","0","0","-14","-1","-2","-3","-1","1","2018-07-03T18:21:34.297013"
"2018-07-03T18:21:34.303339","emg","-3","1","17","6","0","-3","0","-3","2018-07-03T18:21:34.302348"
"2018-07-03T18:21:34.303657","emg","3","3","-3","-5","-2","-1","-1","0","2018-07-03T18:21:34.302822"
"2018-07-03T18:21:34.320098","acc","-352","-1944","225","gyro","-99","-137","-631","quat","12807","-9886","-653","2497","2018-07-03T18:21:34.318833"
"2018-07-03T18:21:34.321921","emg","-2","-2","-9","3","1","-3","-3","-1","2018-07-03T18:21:34.320892"
"2018-07-03T18:21:34.322394","emg","-1","-1","25","9","-7","-2","-5","-3","2018-07-03T18:21:34.321392"
"2018-07-03T18:21:34.326361","emg","-2","-4","-36","-14","-4","-3","2","1","2018-07-03T18:21:34.325285"
"2018-07-03T18:21:34.326966","emg","1","-2","4","-6","5","4","0","0","2018-07-03T18:21:34.325761"
"2018-07-03T18:21:34.342046","acc","-258","-1894","328","gyro","-60","-67","-751","quat","12809","-9902","-742","2400","2018-07-03T18:21:34.341016"
"2018-07-03T18:21:34.343119","emg","-2","-1","-3","5","-1","0","-2","0","2018-07-03T18:21:34.342377"
"2018-07-03T18:21:34.343428","emg","1","-1","1","-6","0","-2","-3","-1","2018-07-03T18:21:34.342720"
"2018-07-03T18:21:34.348055","emg","-1","-5","-6","2","-7","-3","-3","-3","2018-07-03T18:21:34.347263"
"2018-07-03T18:21:34.348362","emg","2","2","-5","1","2","0","0","-3","2018-07-03T18:21:34.347625"
"2018-07-03T18:21:34.356755","acc","-231","-1734","455","gyro","-43","-31","-835","quat","12823","-9903","-832","2290","2018-07-03T18:21:34.355755"
"2018-07-03T18:21:34.357710","emg","-1","1","-1","-5","1","-7","-3","-1","2018-07-03T18:21:34.356967"
"2018-07-03T18:21:34.358011","emg","0","3","7","3","3","0","-1","0","2018-07-03T18:21:34.357280"
"2018-07-03T18:21:34.363599","emg","-1","1","-4","5","-1","-2","-1","0","2018-07-03T18:21:34.362612"
"2018-07-03T18:21:34.363919","emg","0","3","-15","0","-10","-4","-4","-3","2018-07-03T18:21:34.363077"
"2018-07-03T18:21:34.379164","acc","-169","-1636","544","gyro","-100","-63","-882","quat","12838","-9900","-934","2176","2018-07-03T18:21:34.378193"
"2018-07-03T18:21:34.380052","emg","0","-2","3","0","2","-3","0","1","2018-07-03T18:21:34.379358"
"2018-07-03T18:21:34.380354","emg","-1","0","2","-9","-2","-1","-2","-1","2018-07-03T18:21:34.379661"
"2018-07-03T18:21:34.386055","emg","-4","-1","-7","4","-3","-1","-1","-2","2018-07-03T18:21:34.385057"
"2018-07-03T18:21:34.386378","emg","3","2","17","0","-2","-5","-2","-2","2018-07-03T18:21:34.385538"
"2018-07-03T18:21:34.401810","acc","-120","-1915","648","gyro","37","-46","-849","quat","12868","-9875","-1029","2064","2018-07-03T18:21:34.400844"
"2018-07-03T18:21:34.402870","emg","-2","2","2","6","-4","2","3","0","2018-07-03T18:21:34.402170"
"2018-07-03T18:21:34.403258","emg","-1","-10","-6","-3","6","1","-2","1","2018-07-03T18:21:34.402557"
"2018-07-03T18:21:34.408007","emg","-2","-2","-15","-15","1","3","-2","-1","2018-07-03T18:21:34.407216"
"2018-07-03T18:21:34.408320","emg","0","-1","27","20","-2","-2","-4","0","2018-07-03T18:21:34.407585"
"2018-07-03T18:21:34.416571","acc","-98","-1953","625","gyro","228","-41","-1158","quat","12921","-9823","-1151","1911","2018-07-03T18:21:34.415626"
"2018-07-03T18:21:34.417722","emg","-1","-1","-19","-26","-6","-5","-2","-1","2018-07-03T18:21:34.416910"
"2018-07-03T18:21:34.418178","emg","-2","-1","-24","8","0","1","0","-2","2018-07-03T18:21:34.417311"
"2018-07-03T18:21:34.423659","emg","-1","-5","30","2","-4","-5","0","0","2018-07-03T18:21:34.422563"
"2018-07-03T18:21:34.424165","emg","-2","-3","-6","-11","1","5","2","2","2018-07-03T18:21:34.423073"
"2018-07-03T18:21:34.439411","acc","2","-1867","647","gyro","342","-85","-1457","quat","12991","-9746","-1310","1720","2018-07-03T18:21:34.438385"
"2018-07-03T18:21:34.440377","emg","0","2","-3","7","0","-4","-6","-3","2018-07-03T18:21:34.439649"
"2018-07-03T18:21:34.440741","emg","-5","-1","6","-1","6","-2","1","4","2018-07-03T18:21:34.440004"
"2018-07-03T18:21:34.445863","emg","0","-1","0","4","5","3","-1","-1","2018-07-03T18:21:34.444882"
"2018-07-03T18:21:34.446174","emg","-1","1","13","19","-1","-5","-1","1","2018-07-03T18:21:34.445377"
"2018-07-03T18:21:34.462089","acc","97","-1810","595","gyro","293","-238","-1673","quat","13049","-9673","-1516","1512","2018-07-03T18:21:34.461064"
"2018-07-03T18:21:34.462998","emg","0","-1","23","-1","1","2","1","-1","2018-07-03T18:21:34.462281"
"2018-07-03T18:21:34.463298","emg","1","-4","-40","-7","-10","0","-3","-1","2018-07-03T18:21:34.462624"
"2018-07-03T18:21:34.468753","emg","0","0","10","1","-4","-3","-2","-3","2018-07-03T18:21:34.467685"
"2018-07-03T18:21:34.469068","emg","1","5","4","5","4","0","0","0","2018-07-03T18:21:34.468220"
"2018-07-03T18:21:34.476850","acc","216","-1906","595","gyro","189","-245","-1676","quat","13090","-9613","-1725","1301","2018-07-03T18:21:34.475788"
"2018-07-03T18:21:34.477785","emg","-1","-4","1","-5","-3","-2","-3","-4","2018-07-03T18:21:34.477045"
"2018-07-03T18:21:34.478092","emg","-3","-12","-42","-17","-4","-4","3","-1","2018-07-03T18:21:34.477399"
"2018-07-03T18:21:34.491106","emg","-2","1","2","0","0","-3","-1","1","2018-07-03T18:21:34.489982"
"2018-07-03T18:21:34.491475","emg","1","1","-14","-3","0","3","1","-1","2018-07-03T18:21:34.490560"
"2018-07-03T18:21:34.499551","acc","104","-2016","556","gyro","247","-366","-1741","quat","13131","-9539","-1954","1097","2018-07-03T18:21:34.498418"
"2018-07-03T18:21:34.500671","emg","1","2","-6","8","2","4","1","-3","2018-07-03T18:21:34.499800"
"2018-07-03T18:21:34.501034","emg","0","0","17","-13","-2","-8","-3","-5","2018-07-03T18:21:34.500194"
"2018-07-03T18:21:34.505984","emg","-3","-6","-34","-14","-10","-4","1","-2","2018-07-03T18:21:34.505017"
"2018-07-03T18:21:34.506341","emg","0","-5","1","-2","14","5","5","1","2018-07-03T18:21:34.505518"
"2018-07-03T18:21:34.522403","acc","129","-1949","576","gyro","350","-425","-1973","quat","13178","-9441","-2212","869","2018-07-03T18:21:34.521261"
"2018-07-03T18:21:34.523468","emg","-2","1","12","-2","1","6","6","1","2018-07-03T18:21:34.522635"
"2018-07-03T18:21:34.523814","emg","-1","0","-37","-8","-3","1","0","-3","2018-07-03T18:21:34.523041"
"2018-07-03T18:21:34.528253","emg","1","4","36","1","-9","-3","-1","-1","2018-07-03T18:21:34.527324"
"2018-07-03T18:21:34.528651","emg","-1","0","0","8","-1","-3","-1","1","2018-07-03T18:21:34.527806"
"2018-07-03T18:21:34.536965","acc","380","-1793","557","gyro","166","-425","-2261","quat","13202","-9356","-2503","592","2018-07-03T18:21:34.535839"
"2018-07-03T18:21:34.537952","emg","0","-1","6","13","1","-1","-1","0","2018-07-03T18:21:34.537195"
"2018-07-03T18:21:34.538259","emg","1","-3","4","-15","-10","-3","1","-1","2018-07-03T18:21:34.537568"
"2018-07-03T18:21:34.543077","emg","-1","0","-13","12","6","1","5","1","2018-07-03T18:21:34.542286"
"2018-07-03T18:21:34.543383","emg","1","2","41","2","-1","1","1","-1","2018-07-03T18:21:34.542698"
"2018-07-03T18:21:34.559138","acc","554","-2001","562","gyro","87","-478","-2100","quat","13206","-9282","-2785","340","2018-07-03T18:21:34.558125"
"2018-07-03T18:21:34.560050","emg","-2","-7","0","11","-2","-6","-2","0","2018-07-03T18:21:34.559329"
"2018-07-03T18:21:34.560355","emg","-1","1","-36","-15","-2","-1","-2","-1","2018-07-03T18:21:34.559672"
"2018-07-03T18:21:34.566206","emg","0","0","4","-11","-4","-3","-6","-1","2018-07-03T18:21:34.565160"
"2018-07-03T18:21:34.566523","emg","-2","-7","-73","-30","-6","1","-3","-3","2018-07-03T18:21:34.565727"
"2018-07-03T18:21:34.581800","acc","532","-1978","525","gyro","237","-483","-2042","quat","13218","-9184","-3059","104","2018-07-03T18:21:34.580691"
"2018-07-03T18:21:34.582818","emg","0","-2","61","15","0","1","-2","1","2018-07-03T18:21:34.582080"
"2018-07-03T18:21:34.583158","emg","-4","-7","-53","-1","4","7","2","2","2018-07-03T18:21:34.582508"
"2018-07-03T18:21:34.588738","emg","-1","0","34","24","0","-2","-4","-2","2018-07-03T18:21:34.587557"
"2018-07-03T18:21:34.589110","emg","0","-3","-31","-9","-1","-6","-5","-1","2018-07-03T18:21:34.588139"
"2018-07-03T18:21:34.596368","acc","524","-1838","582","gyro","349","-630","-2101","quat","13230","-9062","-3356","-122","2018-07-03T18:21:34.595548"
"2018-07-03T18:21:34.597418","emg","1","10","16","-37","3","2","2","1","2018-07-03T18:21:34.596685"
"2018-07-03T18:21:34.597725","emg","-5","-13","-54","18","-15","-7","-3","-4","2018-07-03T18:21:34.597036"
"2018-07-03T18:21:34.610596","emg","-2","3","23","-25","5","4","1","1","2018-07-03T18:21:34.609692"
"2018-07-03T18:21:34.610961","emg","-1","1","-22","2","-9","-3","-2","-1","2018-07-03T18:21:34.610075"
"2018-07-03T18:21:34.619003","acc","740","-1767","604","gyro","91","-769","-2142","quat","13204","-8969","-3677","-352","2018-07-03T18:21:34.618024"
"2018-07-03T18:21:34.620084","emg","-1","0","35","3","9","0","-2","2","2018-07-03T18:21:34.619386"
"2018-07-03T18:21:34.620408","emg","-1","-9","-38","-1","7","2","-2","1","2018-07-03T18:21:34.619708"
"2018-07-03T18:21:34.625563","emg","-1","1","50","9","-3","2","-6","-2","2018-07-03T18:21:34.624726"
"2018-07-03T18:21:34.625925","emg","-3","-6","-10","0","-6","-4","-2","-4","2018-07-03T18:21:34.625103"
"2018-07-03T18:21:34.641757","acc","1039","-1821","484","gyro","-40","-779","-2058","quat","13155","-8894","-3992","-575","2018-07-03T18:21:34.640664"
"2018-07-03T18:21:34.642894","emg","0","2","-32","26","-5","1","1","-1","2018-07-03T18:21:34.642153"
"2018-07-03T18:21:34.643247","emg","1","8","61","16","2","0","-1","0","2018-07-03T18:21:34.642485"
"2018-07-03T18:21:34.648036","emg","0","-3","-39","-14","2","-1","-1","0","2018-07-03T18:21:34.647151"
"2018-07-03T18:21:34.648360","emg","-1","-5","3","-10","-7","-5","-4","-1","2018-07-03T18:21:34.647574"
"2018-07-03T18:21:34.656941","acc","1078","-1853","510","gyro","245","-733","-1874","quat","13130","-8782","-4281","-762","2018-07-03T18:21:34.655699"
"2018-07-03T18:21:34.657893","emg","-3","-4","-25","7","-2","2","2","-2","2018-07-03T18:21:34.657014"
"2018-07-03T18:21:34.658268","emg","-2","2","9","-28","4","4","3","3","2018-07-03T18:21:34.657379"
"2018-07-03T18:21:34.670910","emg","-2","-5","-29","35","-2","-4","-4","-2","2018-07-03T18:21:34.669868"
"2018-07-03T18:21:34.671258","emg","1","4","83","-39","-5","-1","0","0","2018-07-03T18:21:34.670359"
"2018-07-03T18:21:34.678907","acc","1182","-1908","474","gyro","272","-732","-1781","quat","13102","-8667","-4559","-934","2018-07-03T18:21:34.678024"
"2018-07-03T18:21:34.680105","emg","-2","-1","-50","7","-4","-6","-3","-2","2018-07-03T18:21:34.679343"
"2018-07-03T18:21:34.680460","emg","0","2","18","12","5","-2","-1","0","2018-07-03T18:21:34.679669"
"2018-07-03T18:21:34.685588","emg","-1","-5","24","3","0","1","1","-2","2018-07-03T18:21:34.684725"
"2018-07-03T18:21:34.685954","emg","-2","-1","8","32","3","-1","-2","-3","2018-07-03T18:21:34.685138"
"2018-07-03T18:21:34.702595","acc","1342","-1908","534","gyro","395","-638","-1615","quat","13086","-8537","-4808","-1085","2018-07-03T18:21:34.701369"
"2018-07-03T18:21:34.703860","emg","0","-1","0","-18","-7","-4","-3","-2","2018-07-03T18:21:34.703027"
"2018-07-03T18:21:34.704271","emg","1","5","39","-20","-4","-4","-1","-2","2018-07-03T18:21:34.703393"
"2018-07-03T18:21:34.708078","emg","0","-3","-36","17","2","-3","1","-2","2018-07-03T18:21:34.707254"
"2018-07-03T18:21:34.708439","emg","-2","-5","-2","-8","1","2","1","1","2018-07-03T18:21:34.707619"
"2018-07-03T18:21:34.717142","acc","1308","-1723","666","gyro","770","-555","-1189","quat","13113","-8368","-5010","-1165","2018-07-03T18:21:34.716009"
"2018-07-03T18:21:34.718261","emg","-3","-5","11","-20","0","-2","-3","-4","2018-07-03T18:21:34.717521"
"2018-07-03T18:21:34.718610","emg","1","5","47","45","-3","0","-2","-2","2018-07-03T18:21:34.717848"
"2018-07-03T18:21:34.730983","emg","-1","0","-43","-53","5","3","1","0","2018-07-03T18:21:34.729931"
"2018-07-03T18:21:34.731332","emg","-1","4","91","20","-1","-1","1","0","2018-07-03T18:21:34.730418"
"2018-07-03T18:21:34.739572","acc","1130","-1261","539","gyro","556","-664","-942","quat","13115","-8238","-5204","-1216","2018-07-03T18:21:34.738342"
"2018-07-03T18:21:34.740933","emg","-3","-10","-108","-23","-5","-1","-1","-1","2018-07-03T18:21:34.740006"
"2018-07-03T18:21:34.741363","emg","-1","2","67","42","-3","-4","-2","1","2018-07-03T18:21:34.740372"
"2018-07-03T18:21:34.746238","emg","-3","-6","-63","-36","-11","-6","-4","-1","2018-07-03T18:21:34.745196"
"2018-07-03T18:21:34.746576","emg","3","6","73","42","8","4","1","1","2018-07-03T18:21:34.745676"
"2018-07-03T18:21:34.753306","acc","1194","-1486","550","gyro","-136","-824","-1047","quat","13041","-8209","-5414","-1299","2018-07-03T18:21:34.752390"
"2018-07-03T18:21:34.761599","emg","-5","-12","-26","-54","-6","-1","-1","-2","2018-07-03T18:21:34.760468"
"2018-07-03T18:21:34.761948","emg","4","5","37","26","3","1","-2","0","2018-07-03T18:21:34.761014"
"2018-07-03T18:21:34.768103","emg","-1","1","23","4","-1","0","1","-2","2018-07-03T18:21:34.767218"
"2018-07-03T18:21:34.768478","emg","-1","2","-34","-2","2","0","1","0","2018-07-03T18:21:34.767641"
"2018-07-03T18:21:34.777149","acc","1372","-1889","556","gyro","-117","-785","-1111","quat","12963","-8183","-5614","-1382","2018-07-03T18:21:34.776024"
"2018-07-03T18:21:34.778265","emg","2","4","30","7","-1","-3","-5","-1","2018-07-03T18:21:34.777531"
"2018-07-03T18:21:34.778622","emg","-2","-1","-26","-5","-1","1","0","-1","2018-07-03T18:21:34.777856"
"2018-07-03T18:21:34.791341","emg","-1","-2","20","20","-6","-3","1","-3","2018-07-03T18:21:34.790063"
"2018-07-03T18:21:34.791715","emg","0","-1","-31","-29","-1","-2","1","-1","2018-07-03T18:21:34.790755"
"2018-07-03T18:21:34.799434","acc","1401","-1850","613","gyro","553","-574","-889","quat","12963","-8069","-5771","-1411","2018-07-03T18:21:34.798361"
"2018-07-03T18:21:34.800390","emg","-1","-4","-12","14","-2","-2","-4","-1","2018-07-03T18:21:34.799658"
"2018-07-03T18:21:34.800785","emg","-1","-3","13","21","1","-1","-1","-2","2018-07-03T18:21:34.799987"
"2018-07-03T18:21:34.806384","emg","1","1","10","-12","-1","0","-1","1","2018-07-03T18:21:34.805261"
"2018-07-03T18:21:34.806751","emg","-3","-2","-40","25","-1","1","-1","-2","2018-07-03T18:21:34.805842"
"2018-07-03T18:21:34.814200","acc","1218","-1420","641","gyro","788","-480","-681","quat","12997","-7918","-5901","-1412","2018-07-03T18:21:34.813048"
"2018-07-03T18:21:34.821472","emg","-1","4","43","-30","-1","0","2","-2","2018-07-03T18:21:34.820302"
"2018-07-03T18:21:34.821837","emg","2","0","-39","-6","3","-4","0","-1","2018-07-03T18:21:34.820923"
"2018-07-03T18:21:34.828945","emg","-1","-3","2","-14","-4","-3","1","1","2018-07-03T18:21:34.827779"
"2018-07-03T18:21:34.829327","emg","-3","-3","-25","-18","-2","0","-1","-1","2018-07-03T18:21:34.828370"
"2018-07-03T18:21:34.836456","acc","1102","-1175","663","gyro","385","-579","-741","quat","12993","-7813","-6042","-1442","2018-07-03T18:21:34.835633"
"2018-07-03T18:21:34.837661","emg","1","2","23","35","1","-1","-1","2","2018-07-03T18:21:34.836963"
"2018-07-03T18:21:34.837953","emg","0","-3","-22","-32","-4","-2","-1","-2","2018-07-03T18:21:34.837378"
"2018-07-03T18:21:34.850998","emg","0","2","17","5","0","0","0","-2","2018-07-03T18:21:34.849918"
"2018-07-03T18:21:34.851360","emg","-1","-4","-23","-22","-2","-1","-1","-1","2018-07-03T18:21:34.850422"
"2018-07-03T18:21:34.859598","acc","1156","-1324","660","gyro","46","-776","-863","quat","12942","-7757","-6210","-1488","2018-07-03T18:21:34.858441"
"2018-07-03T18:21:34.860714","emg","0","2","10","12","0","0","-1","-1","2018-07-03T18:21:34.859834"
"2018-07-03T18:21:34.861076","emg","-1","-1","-5","-13","-2","-1","-2","-4","2018-07-03T18:21:34.860238"
"2018-07-03T18:21:34.866102","emg","1","0","1","8","1","1","0","0","2018-07-03T18:21:34.864965"
"2018-07-03T18:21:34.866462","emg","1","-1","0","0","-3","0","-1","1","2018-07-03T18:21:34.865531"
"2018-07-03T18:21:34.874137","acc","1205","-1612","712","gyro","111","-801","-999","quat","12893","-7692","-6379","-1535","2018-07-03T18:21:34.872987"
"2018-07-03T18:21:34.880523","emg","-1","-1","0","9","-1","-2","2","-2","2018-07-03T18:21:34.879724"
"2018-07-03T18:21:34.880874","emg","-1","1","6","-3","-1","-1","-1","-1","2018-07-03T18:21:34.880092"
"2018-07-03T18:21:34.888044","emg","-3","0","4","1","2","0","0","-2","2018-07-03T18:21:34.887226"
"2018-07-03T18:21:34.888356","emg","-2","-3","-19","-2","-2","-3","0","-2","2018-07-03T18:21:34.887600"
"2018-07-03T18:21:34.897065","acc","1786","-2265","879","gyro","465","-234","-856","quat","12910","-7587","-6458","-1577","2018-07-03T18:21:34.895950"
"2018-07-03T18:21:34.897902","emg","-1","-1","1","5","2","-1","-2","0","2018-07-03T18:21:34.897171"
"2018-07-03T18:21:34.898200","emg","-2","0","12","-10","-1","1","0","0","2018-07-03T18:21:34.897507"
"2018-07-03T18:21:34.911314","emg","2","-2","-8","3","-1","-1","-2","-2","2018-07-03T18:21:34.910213"
"2018-07-03T18:21:34.911679","emg","-1","-2","0","-1","-1","-2","0","-1","2018-07-03T18:21:34.910740"
"2018-07-03T18:21:34.918896","acc","1862","-1634","994","gyro","1248","286","95","quat","13048","-7395","-6421","-1504","2018-07-03T18:21:34.918122"
"2018-07-03T18:21:34.919846","emg","0","-2","-3","2","-1","0","-1","-1","2018-07-03T18:21:34.919164"
"2018-07-03T18:21:34.920151","emg","-1","-1","11","-4","-1","-1","-2","0","2018-07-03T18:21:34.919465"
"2018-07-03T18:21:34.926284","emg","-1","-1","2","2","-2","0","-2","1","2018-07-03T18:21:34.925234"
"2018-07-03T18:21:34.926601","emg","-1","-3","-12","-1","-3","-1","-1","0","2018-07-03T18:21:34.925777"
"2018-07-03T18:21:34.933415","acc","1439","-802","779","gyro","536","392","585","quat","13141","-7317","-6336","-1438","2018-07-03T18:21:34.932406"
"2018-07-03T18:21:34.940513","emg","-1","0","0","7","0","-1","0","-1","2018-07-03T18:21:34.939722"
"2018-07-03T18:21:34.940858","emg","-2","-1","11","-14","-3","-4","0","-1","2018-07-03T18:21:34.940085"
"2018-07-03T18:21:34.948322","emg","-1","0","0","2","2","-2","-1","-1","2018-07-03T18:21:34.947303"
"2018-07-03T18:21:34.948665","emg","-2","1","0","1","0","-1","-2","1","2018-07-03T18:21:34.947800"
"2018-07-03T18:21:34.957369","acc","1182","-1033","705","gyro","-1055","169","373","quat","13085","-7474","-6258","-1477","2018-07-03T18:21:34.956245"
"2018-07-03T18:21:34.958396","emg","-1","-1","-12","-1","1","-2","0","-1","2018-07-03T18:21:34.957602"
"2018-07-03T18:21:34.958747","emg","-1","1","18","11","3","1","0","0","2018-07-03T18:21:34.957956"
"2018-07-03T18:21:34.971058","emg","-1","-3","-19","-20","-5","-1","-1","0","2018-07-03T18:21:34.969885"
"2018-07-03T18:21:34.971476","emg","0","1","8","-2","-1","0","1","-1","2018-07-03T18:21:34.970416"
"2018-07-03T18:21:34.979547","acc","1236","-1533","592","gyro","-1226","36","72","quat","12991","-7663","-6211","-1539","2018-07-03T18:21:34.978318"
"2018-07-03T18:21:34.980879","emg","1","-2","0","7","-1","-2","-1","0","2018-07-03T18:21:34.979978"
"2018-07-03T18:21:34.981292","emg","-2","-3","-24","2","1","0","0","-1","2018-07-03T18:21:34.980355"
"2018-07-03T18:21:34.986516","emg","-2","-1","3","5","-2","-1","-1","-3","2018-07-03T18:21:34.985364"
"2018-07-03T18:21:34.986916","emg","1","0","-5","-2","0","0","-2","-2","2018-07-03T18:21:34.985889"
"2018-07-03T18:21:34.993704","acc","1309","-1752","485","gyro","-252","32","-80","quat","12967","-7716","-6194","-1550","2018-07-03T18:21:34.992557"
"2018-07-03T18:21:35.001505","emg","-2","1","9","-2","-3","0","0","0","2018-07-03T18:21:35.000271"
"2018-07-03T18:21:35.001903","emg","2","0","1","3","-2","1","-1","0","2018-07-03T18:21:35.000870"
"2018-07-03T18:21:35.008492","emg","0","0","-6","5","2","0","2","-1","2018-07-03T18:21:35.007404"
"2018-07-03T18:21:35.008920","emg","0","-2","3","-2","-2","-2","0","0","2018-07-03T18:21:35.007938"
"2018-07-03T18:21:35.017128","acc","1478","-1495","519","gyro","681","75","-206","quat","13020","-7612","-6214","-1535","2018-07-03T18:21:35.015815"
"2018-07-03T18:21:35.018091","emg","1","-1","2","-1","0","-2","-3","-3","2018-07-03T18:21:35.017269"
"2018-07-03T18:21:35.018464","emg","2","-1","1","-5","0","-1","-1","-1","2018-07-03T18:21:35.017647"
"2018-07-03T18:21:35.030978","emg","-1","0","2","3","0","-1","-1","0","2018-07-03T18:21:35.029883"
"2018-07-03T18:21:35.031351","emg","-2","-3","-3","-3","-2","0","0","-2","2018-07-03T18:21:35.030399"
"2018-07-03T18:21:35.038819","acc","1595","-1216","520","gyro","837","96","-126","quat","13087","-7477","-6242","-1517","2018-07-03T18:21:35.038005"
"2018-07-03T18:21:35.039766","emg","-1","0","-3","-2","-1","1","-1","-1","2018-07-03T18:21:35.039081"
"2018-07-03T18:21:35.040073","emg","-1","-1","-4","-5","-3","-1","-1","-3","2018-07-03T18:21:35.039386"
"2018-07-03T18:21:35.045861","emg","0","-2","8","0","-2","-1","-1","-1","2018-07-03T18:21:35.044856"
"2018-07-03T18:21:35.046178","emg","-2","-1","-4","2","-2","-1","-1","-3","2018-07-03T18:21:35.045331"
"2018-07-03T18:21:35.053896","acc","1619","-1105","485","gyro","423","78","20","quat","13118","-7408","-6260","-1508","2018-07-03T18:21:35.052936"
"2018-07-03T18:21:35.061082","emg","0","-1","-7","-3","0","-1","-1","0","2018-07-03T18:21:35.060084"
"2018-07-03T18:21:35.061404","emg","-2","-1","6","-2","-1","-1","-2","0","2018-07-03T18:21:35.060571"
"2018-07-03T18:21:35.068687","emg","-1","-1","1","5","1","-2","0","0","2018-07-03T18:21:35.067638"
"2018-07-03T18:21:35.069010","emg","-1","-3","-5","-1","0","0","-2","0","2018-07-03T18:21:35.068122"
"2018-07-03T18:21:35.076728","acc","1584","-1153","473","gyro","-118","56","77","quat","13105","-7424","-6265","-1523","2018-07-03T18:21:35.075639"
"2018-07-03T18:21:35.077667","emg","-2","-2","0","-3","-2","-2","0","0","2018-07-03T18:21:35.076933"
