"2018-03-22T17:16:36.712790","emg","0","1","-2","-1","3","-1","0","2","2018-03-22T17:16:36.711849"
"2018-03-22T17:16:36.713113","emg","-2","-2","-2","-4","-7","-12","-5","-5","2018-03-22T17:16:36.712316"
"2018-03-22T17:16:36.720775","emg","0","0","0","0","-2","8","0","2","2018-03-22T17:16:36.719652"
"2018-03-22T17:16:36.721257","emg","-2","-3","-1","-2","-1","-1","-1","1","2018-03-22T17:16:36.720310"
"2018-03-22T17:16:36.727960","acc","1882","49","668","gyro","-4","-9","3","quat","1037","9445","-469","13338","2018-03-22T17:16:36.726969"
"2018-03-22T17:16:36.735869","emg","-1","-1","0","0","0","-1","-1","-1","2018-03-22T17:16:36.734793"
"2018-03-22T17:16:36.736241","emg","1","0","1","0","1","4","-1","-2","2018-03-22T17:16:36.735397"
"2018-03-22T17:16:36.743675","emg","-2","-1","0","0","-1","-1","-2","-1","2018-03-22T17:16:36.742663"
"2018-03-22T17:16:36.744193","emg","-1","-1","0","-1","2","3","0","-3","2018-03-22T17:16:36.743205"
"2018-03-22T17:16:36.745609","acc","1866","31","645","gyro","-11","-4","3","quat","1036","9445","-469","13338","2018-03-22T17:16:36.744784"
"2018-03-22T17:16:36.750898","emg","0","-2","-1","-3","-7","-3","-6","1","2018-03-22T17:16:36.749802"
"2018-03-22T17:16:36.751212","emg","-3","-1","-2","-3","-3","1","-7","-1","2018-03-22T17:16:36.750441"
"2018-03-22T17:16:36.766625","emg","-2","-1","-1","-1","-4","0","-2","-2","2018-03-22T17:16:36.765557"
"2018-03-22T17:16:36.766942","emg","0","-2","-2","0","-3","-4","3","2","2018-03-22T17:16:36.766181"
"2018-03-22T17:16:36.768229","acc","1868","36","650","gyro","2","-2","3","quat","1036","9446","-470","13338","2018-03-22T17:16:36.767470"
"2018-03-22T17:16:36.772577","emg","-1","-1","-1","-2","2","1","-2","-2","2018-03-22T17:16:36.771777"
"2018-03-22T17:16:36.772890","emg","1","-1","0","-2","0","-3","1","3","2018-03-22T17:16:36.772238"
"2018-03-22T17:16:36.780557","emg","0","-2","0","0","-1","-3","-2","-3","2018-03-22T17:16:36.779474"
"2018-03-22T17:16:36.780888","emg","-1","-3","-2","-1","2","2","-1","1","2018-03-22T17:16:36.780091"
"2018-03-22T17:16:36.788483","acc","1876","42","644","gyro","2","1","5","quat","1036","9446","-470","13338","2018-03-22T17:16:36.787427"
"2018-03-22T17:16:36.795372","emg","-2","-2","-1","0","-2","1","3","0","2018-03-22T17:16:36.794374"
"2018-03-22T17:16:36.795699","emg","0","1","-1","1","-2","-5","-1","1","2018-03-22T17:16:36.794919"
"2018-03-22T17:16:36.803699","emg","-1","-4","-2","-2","-1","-6","2","-3","2018-03-22T17:16:36.802710"
"2018-03-22T17:16:36.804011","emg","-1","0","-3","-2","-1","3","-4","-1","2018-03-22T17:16:36.803266"
"2018-03-22T17:16:36.805284","acc","1876","47","661","gyro","2","2","1","quat","1036","9446","-470","13338","2018-03-22T17:16:36.804531"
"2018-03-22T17:16:36.810065","emg","-1","-1","-1","1","2","8","7","2","2018-03-22T17:16:36.809294"
"2018-03-22T17:16:36.810339","emg","-1","-1","-1","0","-9","-11","-4","-6","2018-03-22T17:16:36.809709"
"2018-03-22T17:16:36.826634","emg","-1","0","0","-1","0","0","2","0","2018-03-22T17:16:36.825546"
"2018-03-22T17:16:36.826952","emg","1","0","1","-1","-1","-11","-3","-3","2018-03-22T17:16:36.826190"
"2018-03-22T17:16:36.828265","acc","1895","20","652","gyro","-15","10","4","quat","1036","9446","-471","13337","2018-03-22T17:16:36.827468"
"2018-03-22T17:16:36.833154","emg","-1","0","0","-2","-5","-8","-9","0","2018-03-22T17:16:36.832072"
"2018-03-22T17:16:36.833469","emg","-2","-3","-1","-2","1","3","4","3","2018-03-22T17:16:36.832689"
"2018-03-22T17:16:36.840528","emg","-1","-3","-2","-1","0","-1","0","-5","2018-03-22T17:16:36.839478"
"2018-03-22T17:16:36.840843","emg","2","-1","-3","-2","-2","3","7","4","2018-03-22T17:16:36.840089"
"2018-03-22T17:16:36.848254","acc","1885","10","681","gyro","-8","28","4","quat","1034","9441","-475","13341","2018-03-22T17:16:36.847171"
"2018-03-22T17:16:36.856025","emg","-4","-1","-3","-2","-7","-7","-19","3","2018-03-22T17:16:36.854978"
"2018-03-22T17:16:36.856339","emg","4","1","0","0","0","-7","12","-3","2018-03-22T17:16:36.855556"
"2018-03-22T17:16:36.864383","emg","-24","10","4","1","1","4","-29","-26","2018-03-22T17:16:36.863346"
"2018-03-22T17:16:36.864706","emg","6","-17","-7","-4","-2","-14","16","10","2018-03-22T17:16:36.863937"
"2018-03-22T17:16:36.865994","acc","1895","-6","683","gyro","12","52","5","quat","1029","9432","-477","13347","2018-03-22T17:16:36.865201"
"2018-03-22T17:16:36.870585","emg","0","1","0","1","4","-3","-7","-5","2018-03-22T17:16:36.869491"
"2018-03-22T17:16:36.870918","emg","-7","-1","0","-2","-1","4","5","14","2018-03-22T17:16:36.870143"
"2018-03-22T17:16:36.886797","emg","-56","-6","-2","-2","-4","-7","-6","-12","2018-03-22T17:16:36.885513"
"2018-03-22T17:16:36.887178","emg","45","-2","-7","-10","-3","8","7","20","2018-03-22T17:16:36.886237"
"2018-03-22T17:16:36.888696","acc","1905","0","771","gyro","-2","107","5","quat","1026","9410","-480","13363","2018-03-22T17:16:36.887734"
"2018-03-22T17:16:36.892936","emg","-20","9","-9","-4","-7","-18","-13","-23","2018-03-22T17:16:36.891904"
"2018-03-22T17:16:36.893262","emg","11","-27","-35","-4","1","5","9","22","2018-03-22T17:16:36.892477"
"2018-03-22T17:16:36.909110","emg","57","-7","39","-18","-4","1","-1","20","2018-03-22T17:16:36.907870"
"2018-03-22T17:16:36.909499","emg","-49","-55","-109","-57","-10","-5","-39","-62","2018-03-22T17:16:36.908558"
"2018-03-22T17:16:36.911053","acc","2264","114","1096","gyro","-137","41","-179","quat","1071","9383","-477","13379","2018-03-22T17:16:36.910142"
"2018-03-22T17:16:36.916653","emg","14","36","113","27","-2","-3","40","-25","2018-03-22T17:16:36.915060"
"2018-03-22T17:16:36.917215","emg","-49","64","2","60","17","17","-34","-3","2018-03-22T17:16:36.915779"
"2018-03-22T17:16:36.924322","emg","37","27","49","43","13","6","27","13","2018-03-22T17:16:36.923142"
"2018-03-22T17:16:36.924709","emg","-19","41","3","35","12","13","-25","23","2018-03-22T17:16:36.923825"
"2018-03-22T17:16:36.926547","acc","2583","-218","1263","gyro","-507","96","-958","quat","1246","9343","-476","13392","2018-03-22T17:16:36.925471"
"2018-03-22T17:16:36.938368","emg","4","-18","-12","-5","0","-5","-6","28","2018-03-22T17:16:36.937263"
"2018-03-22T17:16:36.938688","emg","-13","-17","-30","-7","-8","-10","-9","-32","2018-03-22T17:16:36.937875"
"2018-03-22T17:16:36.946799","emg","48","-13","-28","-22","-8","2","29","40","2018-03-22T17:16:36.945363"
"2018-03-22T17:16:36.947302","emg","-21","-37","-46","-24","-9","-13","-20","-2","2018-03-22T17:16:36.946048"
"2018-03-22T17:16:36.948393","acc","2197","-541","588","gyro","-826","711","-616","quat","1387","9246","-577","13441","2018-03-22T17:16:36.947699"
"2018-03-22T17:16:36.953103","emg","2","-29","-76","-45","-9","-1","6","-18","2018-03-22T17:16:36.952097"
"2018-03-22T17:16:36.953422","emg","-13","-7","0","-39","-4","1","15","-3","2018-03-22T17:16:36.952670"
"2018-03-22T17:16:36.969018","acc","2228","-223","879","gyro","408","1416","-787","quat","1451","9050","-445","13572","2018-03-22T17:16:36.967920"
"2018-03-22T17:16:36.970135","emg","-16","17","55","35","1","-6","-15","-13","2018-03-22T17:16:36.969324"
"2018-03-22T17:16:36.970505","emg","6","2","-26","15","-1","7","25","0","2018-03-22T17:16:36.969721"
"2018-03-22T17:16:36.975906","emg","-22","7","61","17","7","3","-17","15","2018-03-22T17:16:36.974832"
"2018-03-22T17:16:36.976217","emg","37","-22","-56","-11","-5","-2","8","29","2018-03-22T17:16:36.975437"
"2018-03-22T17:16:36.983328","acc","1917","246","1002","gyro","1310","1726","-1351","quat","1530","8817","-89","13723","2018-03-22T17:16:36.982263"
"2018-03-22T17:16:36.990930","emg","-30","-14","-75","-40","-5","-3","-17","-49","2018-03-22T17:16:36.989819"
"2018-03-22T17:16:36.991278","emg","9","46","121","13","4","4","-9","-3","2018-03-22T17:16:36.990472"
"2018-03-22T17:16:36.997967","emg","0","-17","-59","-7","-9","-5","2","-2","2018-03-22T17:16:36.996933"
"2018-03-22T17:16:36.998288","emg","10","22","90","12","5","8","11","1","2018-03-22T17:16:36.997501"
"2018-03-22T17:16:37.006748","acc","2267","753","770","gyro","1325","1937","-1679","quat","1659","8554","311","13871","2018-03-22T17:16:37.005654"
"2018-03-22T17:16:37.007951","emg","24","3","-43","2","-18","-5","-10","16","2018-03-22T17:16:37.007113"
"2018-03-22T17:16:37.008268","emg","-20","-5","24","25","6","-9","3","-10","2018-03-22T17:16:37.007527"
"2018-03-22T17:16:37.012704","emg","8","-2","-20","8","19","11","0","10","2018-03-22T17:16:37.011851"
"2018-03-22T17:16:37.013015","emg","4","-11","-33","-20","-4","2","2","-24","2018-03-22T17:16:37.012275"
"2018-03-22T17:16:37.028714","acc","2222","657","751","gyro","864","2316","-1998","quat","1873","8217","674","14033","2018-03-22T17:16:37.027760"
"2018-03-22T17:16:37.029725","emg","-56","-8","31","41","0","-8","-12","-6","2018-03-22T17:16:37.029017"
"2018-03-22T17:16:37.030073","emg","39","-4","-11","-52","-8","-5","2","9","2018-03-22T17:16:37.029336"
"2018-03-22T17:16:37.035188","emg","-8","-29","-77","-31","-13","-1","7","-4","2018-03-22T17:16:37.034365"
"2018-03-22T17:16:37.035497","emg","8","14","59","53","3","1","5","-5","2018-03-22T17:16:37.034766"
"2018-03-22T17:16:37.042750","acc","2048","839","848","gyro","876","2694","-2313","quat","2128","7808","1076","14204","2018-03-22T17:16:37.041927"
"2018-03-22T17:16:37.050558","emg","7","12","16","19","22","7","21","5","2018-03-22T17:16:37.049409"
"2018-03-22T17:16:37.050883","emg","7","9","7","28","1","8","6","8","2018-03-22T17:16:37.050067"
"2018-03-22T17:16:37.058374","emg","-6","-14","18","-10","2","-18","-26","-4","2018-03-22T17:16:37.057311"
"2018-03-22T17:16:37.058743","emg","-4","5","-46","-5","-3","2","6","-14","2018-03-22T17:16:37.057856"
"2018-03-22T17:16:37.066333","acc","1735","1290","953","gyro","858","2934","-2830","quat","2462","7339","1531","14358","2018-03-22T17:16:37.065343"
"2018-03-22T17:16:37.067336","emg","-19","-11","35","-7","10","6","5","5","2018-03-22T17:16:37.066681"
"2018-03-22T17:16:37.067633","emg","15","8","-55","-10","-23","2","-8","5","2018-03-22T17:16:37.067028"
"2018-03-22T17:16:37.073157","emg","-1","16","83","-7","-2","-6","12","-3","2018-03-22T17:16:37.072090"
"2018-03-22T17:16:37.073477","emg","-11","-18","-39","-11","-5","-7","-14","-7","2018-03-22T17:16:37.072700"
"2018-03-22T17:16:37.089119","acc","1408","1644","966","gyro","288","3039","-3550","quat","2948","6809","1959","14475","2018-03-22T17:16:37.088129"
"2018-03-22T17:16:37.090229","emg","4","-13","-29","-22","-3","-6","-5","6","2018-03-22T17:16:37.089446"
"2018-03-22T17:16:37.090544","emg","3","13","11","34","15","3","7","15","2018-03-22T17:16:37.089786"
"2018-03-22T17:16:37.095806","emg","4","10","-10","27","7","16","18","-4","2018-03-22T17:16:37.094804"
"2018-03-22T17:16:37.096124","emg","-4","-10","10","-23","5","-16","-24","-3","2018-03-22T17:16:37.095376"
"2018-03-22T17:16:37.111402","acc","1200","1708","1177","gyro","-60","3080","-4423","quat","3584","6218","2391","14532","2018-03-22T17:16:37.110345"
"2018-03-22T17:16:37.112473","emg","7","-4","-6","-7","-3","5","3","-1","2018-03-22T17:16:37.111719"
"2018-03-22T17:16:37.112778","emg","-3","3","11","9","-9","3","12","3","2018-03-22T17:16:37.112113"
"2018-03-22T17:16:37.118387","emg","11","3","-22","-23","-10","0","4","-4","2018-03-22T17:16:37.117298"
"2018-03-22T17:16:37.118706","emg","0","-6","24","-6","-10","-2","-4","6","2018-03-22T17:16:37.117894"
"2018-03-22T17:16:37.126869","acc","899","1284","1445","gyro","-71","3340","-4887","quat","4270","5545","2843","14538","2018-03-22T17:16:37.125750"
"2018-03-22T17:16:37.128023","emg","-7","-4","-39","11","34","-5","1","-2","2018-03-22T17:16:37.127184"
"2018-03-22T17:16:37.128342","emg","1","3","22","11","-18","-10","4","-8","2018-03-22T17:16:37.127576"
"2018-03-22T17:16:37.133229","emg","21","17","0","0","15","4","-3","4","2018-03-22T17:16:37.132175"
"2018-03-22T17:16:37.133543","emg","-3","6","16","0","1","8","0","-6","2018-03-22T17:16:37.132761"
"2018-03-22T17:16:37.148832","acc","457","1012","1570","gyro","-38","3524","-4774","quat","4912","4819","3285","14500","2018-03-22T17:16:37.147728"
"2018-03-22T17:16:37.149896","emg","-8","-4","0","-6","-19","1","2","-8","2018-03-22T17:16:37.149120"
"2018-03-22T17:16:37.150241","emg","-13","-14","-3","-31","-24","-6","-7","-11","2018-03-22T17:16:37.149516"
"2018-03-22T17:16:37.155915","emg","-2","3","-17","-1","14","2","10","-7","2018-03-22T17:16:37.154861"
"2018-03-22T17:16:37.156228","emg","23","9","10","12","7","-8","-30","0","2018-03-22T17:16:37.155448"
"2018-03-22T17:16:37.164178","acc","223","974","1589","gyro","-181","3392","-4560","quat","5514","4093","3671","14414","2018-03-22T17:16:37.163106"
"2018-03-22T17:16:37.165243","emg","10","10","-13","-27","0","1","8","0","2018-03-22T17:16:37.164495"
"2018-03-22T17:16:37.165551","emg","-3","-6","25","41","-12","3","-1","-5","2018-03-22T17:16:37.164884"
"2018-03-22T17:16:37.178411","emg","-21","-11","-19","13","-8","-4","-3","-11","2018-03-22T17:16:37.177399"
"2018-03-22T17:16:37.178732","emg","3","-1","-6","-31","-1","5","13","7","2018-03-22T17:16:37.177920"
"2018-03-22T17:16:37.186841","acc","114","932","1559","gyro","-486","3182","-4307","quat","6076","3380","3971","14293","2018-03-22T17:16:37.185682"
"2018-03-22T17:16:37.188028","emg","-4","12","32","57","19","2","-19","-5","2018-03-22T17:16:37.187223"
"2018-03-22T17:16:37.188337","emg","-10","-8","-17","-33","-5","0","1","3","2018-03-22T17:16:37.187660"
"2018-03-22T17:16:37.193250","emg","2","-2","-10","-7","11","2","-5","10","2018-03-22T17:16:37.192192"
"2018-03-22T17:16:37.193571","emg","-5","-2","4","14","14","-7","-9","2","2018-03-22T17:16:37.192807"
"2018-03-22T17:16:37.209096","acc","-15","826","1597","gyro","-734","3007","-4188","quat","6617","2671","4200","14137","2018-03-22T17:16:37.208040"
"2018-03-22T17:16:37.210300","emg","4","-10","-22","-44","-50","-11","-5","8","2018-03-22T17:16:37.209517"
"2018-03-22T17:16:37.210610","emg","0","0","-9","-15","0","0","6","1","2018-03-22T17:16:37.209963"
"2018-03-22T17:16:37.215672","emg","-24","-4","15","29","4","1","-14","1","2018-03-22T17:16:37.214663"
"2018-03-22T17:16:37.215982","emg","14","1","8","9","5","0","7","4","2018-03-22T17:16:37.215226"
"2018-03-22T17:16:37.224242","acc","-150","763","1637","gyro","-745","2663","-4025","quat","7129","2014","4384","13940","2018-03-22T17:16:37.223179"
"2018-03-22T17:16:37.225326","emg","-12","-13","-30","-30","-15","-6","-4","-6","2018-03-22T17:16:37.224568"
"2018-03-22T17:16:37.225627","emg","-3","2","8","3","12","0","1","-3","2018-03-22T17:16:37.224962"
"2018-03-22T17:16:37.237823","emg","8","12","19","7","24","1","-9","3","2018-03-22T17:16:37.236854"
"2018-03-22T17:16:37.238206","emg","-12","-11","-13","-1","-37","0","5","0","2018-03-22T17:16:37.237402"
"2018-03-22T17:16:37.246369","acc","-135","679","1636","gyro","-810","2256","-3847","quat","7615","1420","4508","13714","2018-03-22T17:16:37.245276"
"2018-03-22T17:16:37.247500","emg","7","0","5","11","11","2","-7","2","2018-03-22T17:16:37.246699"
"2018-03-22T17:16:37.247828","emg","17","5","-1","-12","-9","-1","7","1","2018-03-22T17:16:37.247099"
"2018-03-22T17:16:37.252989","emg","-13","-3","-7","-7","-5","-3","-5","-11","2018-03-22T17:16:37.252039"
"2018-03-22T17:16:37.253328","emg","-8","-15","-12","-2","11","4","-3","-4","2018-03-22T17:16:37.252599"
"2018-03-22T17:16:37.268880","acc","-108","720","1530","gyro","-1215","1987","-3459","quat","8046","853","4534","13505","2018-03-22T17:16:37.267827"
"2018-03-22T17:16:37.270111","emg","-9","-1","5","5","7","15","16","1","2018-03-22T17:16:37.269224"
"2018-03-22T17:16:37.270445","emg","-11","1","7","-3","-3","-6","-11","-8","2018-03-22T17:16:37.269624"
"2018-03-22T17:16:37.275184","emg","0","-17","-19","-21","-20","-13","1","-3","2018-03-22T17:16:37.274339"
"2018-03-22T17:16:37.275491","emg","12","23","21","18","-3","-12","6","-4","2018-03-22T17:16:37.274811"
"2018-03-22T17:16:37.283282","acc","-138","626","1557","gyro","-1469","1786","-2939","quat","8397","319","4491","13328","2018-03-22T17:16:37.282543"
"2018-03-22T17:16:37.284317","emg","6","4","-2","8","5","-8","-14","-4","2018-03-22T17:16:37.283612"
"2018-03-22T17:16:37.284583","emg","-23","-18","-9","-1","55","3","5","-4","2018-03-22T17:16:37.283950"
"2018-03-22T17:16:37.298101","emg","29","9","0","-11","-52","-6","1","6","2018-03-22T17:16:37.297139"
"2018-03-22T17:16:37.298380","emg","-1","0","-2","-3","-1","-3","-4","-4","2018-03-22T17:16:37.297619"
"2018-03-22T17:16:37.306417","acc","-273","456","1527","gyro","-1265","1487","-2633","quat","8707","-141","4442","13147","2018-03-22T17:16:37.305526"
"2018-03-22T17:16:37.307308","emg","-11","-10","2","7","10","28","15","1","2018-03-22T17:16:37.306693"
"2018-03-22T17:16:37.307582","emg","-32","-12","-13","-10","6","5","-16","-12","2018-03-22T17:16:37.306978"
"2018-03-22T17:16:37.312824","emg","31","25","-2","0","-13","-6","-21","5","2018-03-22T17:16:37.311882"
"2018-03-22T17:16:37.313110","emg","-4","-4","4","2","10","-1","9","4","2018-03-22T17:16:37.312390"
"2018-03-22T17:16:37.328597","acc","-551","386","1497","gyro","-771","1137","-2303","quat","8978","-492","4428","12959","2018-03-22T17:16:37.327705"
"2018-03-22T17:16:37.329500","emg","14","-2","-2","-5","-7","-7","-1","0","2018-03-22T17:16:37.328879"
"2018-03-22T17:16:37.329856","emg","-1","-11","4","5","10","5","1","1","2018-03-22T17:16:37.329164"
"2018-03-22T17:16:37.335707","emg","-14","3","-2","0","-8","1","12","-3","2018-03-22T17:16:37.334775"
"2018-03-22T17:16:37.335983","emg","1","-1","-5","-14","-11","-31","-27","-2","2018-03-22T17:16:37.335267"
"2018-03-22T17:16:37.344017","acc","-591","463","1320","gyro","-384","719","-2046","quat","9229","-731","4431","12770","2018-03-22T17:16:37.343074"
"2018-03-22T17:16:37.344954","emg","-3","0","-8","-4","-5","-10","-8","1","2018-03-22T17:16:37.344254"
"2018-03-22T17:16:37.345268","emg","1","-6","-2","2","-6","-6","-1","1","2018-03-22T17:16:37.344581"
"2018-03-22T17:16:37.361525","emg","-10","-7","3","13","4","-3","12","6","2018-03-22T17:16:37.359481"
"2018-03-22T17:16:37.361812","emg","8","-3","-5","-10","1","28","2","7","2018-03-22T17:16:37.359986"
"2018-03-22T17:16:37.365818","acc","-715","458","1166","gyro","-205","332","-1846","quat","9467","-891","4422","12588","2018-03-22T17:16:37.365035"
"2018-03-22T17:16:37.366775","emg","-8","4","8","-4","-1","-13","-3","3","2018-03-22T17:16:37.366185"
"2018-03-22T17:16:37.367043","emg","13","22","23","9","2","4","1","4","2018-03-22T17:16:37.366475"
"2018-03-22T17:16:37.372966","emg","-4","-6","-1","23","9","-11","1","4","2018-03-22T17:16:37.372013"
"2018-03-22T17:16:37.373260","emg","-9","-10","-8","-19","-21","-12","0","-5","2018-03-22T17:16:37.372580"
"2018-03-22T17:16:37.389299","acc","-837","230","885","gyro","-167","-29","-1383","quat","9659","-1007","4393","12442","2018-03-22T17:16:37.388288"
"2018-03-22T17:16:37.390244","emg","10","5","-8","-19","1","-1","-21","-1","2018-03-22T17:16:37.389563"
"2018-03-22T17:16:37.390508","emg","18","11","14","17","-11","-14","3","7","2018-03-22T17:16:37.389909"
"2018-03-22T17:16:37.395662","emg","-9","2","12","11","21","16","13","5","2018-03-22T17:16:37.394695"
"2018-03-22T17:16:37.395934","emg","-28","-32","-18","-1","3","1","-10","-7","2018-03-22T17:16:37.395231"
"2018-03-22T17:16:37.411345","acc","-769","-90","1014","gyro","176","-480","-537","quat","9769","-998","4343","12374","2018-03-22T17:16:37.410304"
"2018-03-22T17:16:37.412425","emg","-5","3","-1","-1","-20","-7","2","-3","2018-03-22T17:16:37.411668"
"2018-03-22T17:16:37.412734","emg","-9","-6","-3","-7","-6","-5","-1","-6","2018-03-22T17:16:37.412062"
"2018-03-22T17:16:37.418128","emg","28","16","11","-2","5","-3","-8","7","2018-03-22T17:16:37.417000"
"2018-03-22T17:16:37.418558","emg","-3","-9","-1","-3","-4","1","3","-3","2018-03-22T17:16:37.417578"
"2018-03-22T17:16:37.426385","acc","-852","470","1199","gyro","822","-502","-28","quat","9806","-865","4413","12330","2018-03-22T17:16:37.425358"
"2018-03-22T17:16:37.427493","emg","6","3","-4","-6","1","11","5","2","2018-03-22T17:16:37.426739"
"2018-03-22T17:16:37.427802","emg","-9","-5","0","6","-1","7","9","-1","2018-03-22T17:16:37.427135"
"2018-03-22T17:16:37.433206","emg","5","-2","2","3","14","10","11","-2","2018-03-22T17:16:37.432119"
"2018-03-22T17:16:37.433523","emg","-3","-7","-6","-3","4","11","2","7","2018-03-22T17:16:37.432736"
"2018-03-22T17:16:37.449073","acc","-930","763","1331","gyro","843","-517","234","quat","9803","-704","4501","12311","2018-03-22T17:16:37.448069"
"2018-03-22T17:16:37.450358","emg","-17","-8","1","0","-1","-21","-26","-32","2018-03-22T17:16:37.449594"
"2018-03-22T17:16:37.450734","emg","-9","-8","-8","0","3","-3","-1","-7","2018-03-22T17:16:37.450006"
"2018-03-22T17:16:37.455630","emg","-6","-2","6","-4","-6","-9","-17","3","2018-03-22T17:16:37.454611"
"2018-03-22T17:16:37.455939","emg","9","11","0","5","18","14","27","4","2018-03-22T17:16:37.455186"
"2018-03-22T17:16:37.464180","acc","-1015","789","1408","gyro","139","-742","184","quat","9812","-598","4471","12320","2018-03-22T17:16:37.463131"
"2018-03-22T17:16:37.465510","emg","5","-8","-10","-7","-13","-20","-9","6","2018-03-22T17:16:37.464697"
"2018-03-22T17:16:37.465814","emg","14","4","-7","0","6","5","-3","1","2018-03-22T17:16:37.465116"
"2018-03-22T17:16:37.478339","emg","-6","9","12","10","4","17","-1","-6","2018-03-22T17:16:37.477276"
"2018-03-22T17:16:37.478659","emg","6","3","-2","4","10","22","10","8","2018-03-22T17:16:37.477863"
"2018-03-22T17:16:37.486946","acc","-1079","607","1493","gyro","428","-1032","-106","quat","9882","-452","4436","12283","2018-03-22T17:16:37.485998"
"2018-03-22T17:16:37.487956","emg","14","15","16","19","8","27","1","9","2018-03-22T17:16:37.487267"
"2018-03-22T17:16:37.488263","emg","-3","-4","-7","-13","-12","6","0","-1","2018-03-22T17:16:37.487589"
"2018-03-22T17:16:37.493121","emg","-5","-4","-5","-19","-28","-12","-2","-3","2018-03-22T17:16:37.492123"
"2018-03-22T17:16:37.493437","emg","30","28","18","5","-9","-24","-17","2","2018-03-22T17:16:37.492647"
"2018-03-22T17:16:37.508908","acc","-1008","748","1545","gyro","1074","-1023","-323","quat","9980","-239","4488","12191","2018-03-22T17:16:37.507912"
"2018-03-22T17:16:37.510026","emg","-10","-2","-2","0","-2","-19","18","5","2018-03-22T17:16:37.509203"
"2018-03-22T17:16:37.510341","emg","16","20","14","-11","-26","-35","17","17","2018-03-22T17:16:37.509546"
"2018-03-22T17:16:37.515840","emg","-31","-27","-20","-5","9","2","-32","-14","2018-03-22T17:16:37.514795"
"2018-03-22T17:16:37.516157","emg","-1","16","21","8","-8","-17","-4","-1","2018-03-22T17:16:37.515329"
"2018-03-22T17:16:37.524118","acc","-781","1094","1558","gyro","1374","-938","-666","quat","10109","12","4594","12047","2018-03-22T17:16:37.523104"
"2018-03-22T17:16:37.525183","emg","-1","-14","-18","-16","-9","1","7","-2","2018-03-22T17:16:37.524413"
"2018-03-22T17:16:37.525489","emg","-2","2","9","16","18","1","2","-3","2018-03-22T17:16:37.524750"
"2018-03-22T17:16:37.538349","emg","-1","1","1","1","-3","-9","17","6","2018-03-22T17:16:37.537288"
"2018-03-22T17:16:37.538666","emg","9","-1","-3","-9","-7","0","-9","5","2018-03-22T17:16:37.537823"
"2018-03-22T17:16:37.546662","acc","-622","1187","1559","gyro","1150","-744","-906","quat","10253","216","4685","11886","2018-03-22T17:16:37.545598"
"2018-03-22T17:16:37.547909","emg","-21","-16","-10","4","24","8","-13","-20","2018-03-22T17:16:37.547098"
"2018-03-22T17:16:37.548220","emg","-5","-10","-10","-9","-2","-6","-9","-3","2018-03-22T17:16:37.547466"
"2018-03-22T17:16:37.553164","emg","18","16","16","28","34","6","27","23","2018-03-22T17:16:37.552104"
"2018-03-22T17:16:37.553481","emg","-15","-7","-12","-13","-22","-25","2","-26","2018-03-22T17:16:37.552661"
"2018-03-22T17:16:37.568759","acc","-601","1147","1618","gyro","871","-521","-1037","quat","10403","349","4755","11724","2018-03-22T17:16:37.567780"
"2018-03-22T17:16:37.569801","emg","14","-8","-6","-6","-5","10","28","7","2018-03-22T17:16:37.569071"
"2018-03-22T17:16:37.570147","emg","-20","-9","-11","-7","-2","6","-4","-6","2018-03-22T17:16:37.569409"
"2018-03-22T17:16:37.575860","emg","-1","-13","-15","-16","-33","-5","-14","3","2018-03-22T17:16:37.574805"
"2018-03-22T17:16:37.576177","emg","-8","11","22","24","20","25","10","-6","2018-03-22T17:16:37.575352"
"2018-03-22T17:16:37.584121","acc","-591","1145","1700","gyro","516","-339","-1169","quat","10561","413","4793","11564","2018-03-22T17:16:37.583120"
"2018-03-22T17:16:37.585188","emg","-10","-8","-10","-19","-34","-46","-11","-3","2018-03-22T17:16:37.584416"
"2018-03-22T17:16:37.585493","emg","11","-1","-7","4","9","35","9","0","2018-03-22T17:16:37.584758"
"2018-03-22T17:16:37.598327","emg","-24","-8","-6","-15","-17","-10","-32","-18","2018-03-22T17:16:37.597239"
"2018-03-22T17:16:37.598648","emg","0","-10","-9","-3","7","5","11","3","2018-03-22T17:16:37.597774"
"2018-03-22T17:16:37.606748","acc","-442","881","1721","gyro","169","-163","-1109","quat","10706","412","4784","11434","2018-03-22T17:16:37.605711"
"2018-03-22T17:16:37.607969","emg","-3","-6","-5","-3","-5","-10","15","2","2018-03-22T17:16:37.607159"
"2018-03-22T17:16:37.608278","emg","8","8","12","14","8","9","-31","-6","2018-03-22T17:16:37.607534"
"2018-03-22T17:16:37.613137","emg","-2","-2","-8","-10","8","1","8","-7","2018-03-22T17:16:37.612056"
"2018-03-22T17:16:37.613457","emg","-2","-2","0","-4","-16","-31","-15","0","2018-03-22T17:16:37.612638"
"2018-03-22T17:16:37.629087","acc","-253","882","1691","gyro","102","137","-1061","quat","10828","383","4791","11317","2018-03-22T17:16:37.628119"
"2018-03-22T17:16:37.630216","emg","13","13","10","12","12","28","-12","7","2018-03-22T17:16:37.629414"
"2018-03-22T17:16:37.630530","emg","-7","-11","-16","-13","11","-11","14","-6","2018-03-22T17:16:37.629754"
"2018-03-22T17:16:37.635697","emg","6","2","4","-2","-9","5","-12","6","2018-03-22T17:16:37.634685"
"2018-03-22T17:16:37.636012","emg","-1","2","-9","-15","-12","5","-2","-4","2018-03-22T17:16:37.635204"
"2018-03-22T17:16:37.644155","acc","-415","412","1436","gyro","-27","146","-824","quat","10929","313","4779","11227","2018-03-22T17:16:37.643149"
"2018-03-22T17:16:37.645233","emg","4","1","-4","-8","5","37","-8","5","2018-03-22T17:16:37.644466"
"2018-03-22T17:16:37.645550","emg","-4","4","1","-12","-27","18","2","-1","2018-03-22T17:16:37.644803"
"2018-03-22T17:16:37.658355","emg","5","-4","-12","-23","-7","41","-9","-8","2018-03-22T17:16:37.657281"
"2018-03-22T17:16:37.658722","emg","-2","-1","16","59","50","21","8","5","2018-03-22T17:16:37.657836"
"2018-03-22T17:16:37.666668","acc","-307","-84","1425","gyro","35","202","15","quat","10935","263","4746","11235","2018-03-22T17:16:37.665643"
"2018-03-22T17:16:37.667749","emg","7","5","3","0","-2","-10","-11","-1","2018-03-22T17:16:37.666992"
"2018-03-22T17:16:37.668186","emg","1","6","3","1","6","7","-2","-1","2018-03-22T17:16:37.667331"
"2018-03-22T17:16:37.673132","emg","-12","-21","-9","-15","-12","-20","8","1","2018-03-22T17:16:37.672051"
"2018-03-22T17:16:37.673459","emg","-21","-8","-9","-21","-16","-13","-14","-10","2018-03-22T17:16:37.672619"
"2018-03-22T17:16:37.689234","acc","-186","284","1569","gyro","160","176","1142","quat","10796","319","4728","11376","2018-03-22T17:16:37.687975"
"2018-03-22T17:16:37.690379","emg","0","0","-4","1","6","-4","4","-6","2018-03-22T17:16:37.689587"
"2018-03-22T17:16:37.690693","emg","0","7","11","1","-3","-15","-9","-9","2018-03-22T17:16:37.689978"
"2018-03-22T17:16:37.695622","emg","12","3","0","3","-6","-13","14","4","2018-03-22T17:16:37.694646"
"2018-03-22T17:16:37.695935","emg","2","-1","-2","-3","5","6","-16","-8","2018-03-22T17:16:37.695158"
"2018-03-22T17:16:37.704491","acc","-315","597","1486","gyro","58","-8","1844","quat","10565","424","4720","11590","2018-03-22T17:16:37.703343"
"2018-03-22T17:16:37.705719","emg","-1","4","0","-5","-10","-5","3","-5","2018-03-22T17:16:37.704855"
"2018-03-22T17:16:37.706067","emg","-2","-3","-4","-2","-4","2","-8","0","2018-03-22T17:16:37.705253"
"2018-03-22T17:16:37.718290","emg","-1","3","6","11","5","-15","-12","-6","2018-03-22T17:16:37.717208"
"2018-03-22T17:16:37.718608","emg","-1","-5","-10","-11","-7","1","13","10","2018-03-22T17:16:37.717752"
"2018-03-22T17:16:37.726732","acc","-358","422","1397","gyro","-94","-447","2178","quat","10312","580","4639","11841","2018-03-22T17:16:37.725691"
"2018-03-22T17:16:37.727824","emg","-8","2","1","-7","-6","-5","-18","-13","2018-03-22T17:16:37.727056"
"2018-03-22T17:16:37.728130","emg","0","-7","-6","-1","-3","-14","0","1","2018-03-22T17:16:37.727398"
"2018-03-22T17:16:37.733169","emg","-2","-1","1","7","10","3","4","-9","2018-03-22T17:16:37.732141"
"2018-03-22T17:16:37.733482","emg","-1","2","-1","-7","-6","6","4","22","2018-03-22T17:16:37.732671"
"2018-03-22T17:16:37.749071","acc","-322","358","1246","gyro","256","-948","2617","quat","10017","859","4541","12112","2018-03-22T17:16:37.748023"
"2018-03-22T17:16:37.750390","emg","7","5","6","5","5","16","22","-1","2018-03-22T17:16:37.749508"
"2018-03-22T17:16:37.750776","emg","0","2","2","6","4","5","-4","-5","2018-03-22T17:16:37.749906"
"2018-03-22T17:16:37.755424","emg","-6","-4","-5","1","1","-13","-14","-9","2018-03-22T17:16:37.754387"
"2018-03-22T17:16:37.755867","emg","1","-7","-12","-16","-14","-11","-1","-1","2018-03-22T17:16:37.754969"
"2018-03-22T17:16:37.764037","acc","-217","540","1210","gyro","457","-1250","3235","quat","9641","1233","4428","12423","2018-03-22T17:16:37.763012"
"2018-03-22T17:16:37.765260","emg","0","2","5","4","4","-19","-3","5","2018-03-22T17:16:37.764540"
"2018-03-22T17:16:37.765674","emg","4","-3","-3","1","2","-26","7","10","2018-03-22T17:16:37.764898"
"2018-03-22T17:16:37.777539","emg","-1","1","0","2","4","-11","7","2","2018-03-22T17:16:37.776689"
"2018-03-22T17:16:37.777918","emg","-2","-5","-3","-6","-4","4","-4","-8","2018-03-22T17:16:37.777133"
"2018-03-22T17:16:37.786790","acc","-100","713","1176","gyro","612","-1553","3846","quat","9177","1693","4290","12764","2018-03-22T17:16:37.785694"
"2018-03-22T17:16:37.788020","emg","-5","-5","-5","1","1","4","-3","-4","2018-03-22T17:16:37.787294"
"2018-03-22T17:16:37.788386","emg","-1","0","1","0","2","4","-4","3","2018-03-22T17:16:37.787658"
"2018-03-22T17:16:37.793080","emg","2","6","3","3","4","45","2","4","2018-03-22T17:16:37.792063"
"2018-03-22T17:16:37.793450","emg","-4","-3","-1","-1","1","8","6","1","2018-03-22T17:16:37.792612"
"2018-03-22T17:16:37.808859","acc","-18","792","1242","gyro","367","-1816","4375","quat","8634","2186","4072","13134","2018-03-22T17:16:37.807825"
"2018-03-22T17:16:37.810154","emg","-2","-2","-1","-1","-1","-10","5","5","2018-03-22T17:16:37.809376"
"2018-03-22T17:16:37.810678","emg","-2","-2","-2","-1","5","20","-8","5","2018-03-22T17:16:37.809735"
"2018-03-22T17:16:37.815802","emg","-4","-2","0","0","-1","-18","-4","-10","2018-03-22T17:16:37.814773"
"2018-03-22T17:16:37.816177","emg","-3","-7","-4","-5","-4","-6","1","3","2018-03-22T17:16:37.815334"
"2018-03-22T17:16:37.823453","acc","28","902","1280","gyro","86","-2089","4729","quat","8034","2699","3771","13504","2018-03-22T17:16:37.822508"
"2018-03-22T17:16:37.830792","emg","7","-1","0","-1","-4","0","5","13","2018-03-22T17:16:37.829740"
"2018-03-22T17:16:37.831128","emg","-8","-4","-10","-11","-1","-6","-3","-10","2018-03-22T17:16:37.830340"
"2018-03-22T17:16:37.838154","emg","0","-1","9","6","2","3","6","3","2018-03-22T17:16:37.837077"
"2018-03-22T17:16:37.838473","emg","3","4","7","3","-1","-6","-4","-3","2018-03-22T17:16:37.837596"
"2018-03-22T17:16:37.846670","acc","165","1006","1332","gyro","-73","-2402","4886","quat","7402","3242","3404","13839","2018-03-22T17:16:37.845663"
"2018-03-22T17:16:37.847705","emg","-4","-6","0","0","6","19","-1","-9","2018-03-22T17:16:37.846993"
"2018-03-22T17:16:37.848014","emg","-3","5","-1","4","7","-4","-2","-11","2018-03-22T17:16:37.847334"
"2018-03-22T17:16:37.860310","emg","-1","4","8","2","-4","5","0","4","2018-03-22T17:16:37.859309"
"2018-03-22T17:16:37.860629","emg","0","1","-4","-4","9","27","-10","-13","2018-03-22T17:16:37.859834"
"2018-03-22T17:16:37.868795","acc","403","1018","1447","gyro","-71","-2686","4830","quat","6763","3814","3003","14110","2018-03-22T17:16:37.867823"
"2018-03-22T17:16:37.869865","emg","4","-2","-1","3","2","34","-3","6","2018-03-22T17:16:37.869107"
"2018-03-22T17:16:37.870229","emg","4","2","-6","-10","-3","60","20","12","2018-03-22T17:16:37.869444"
"2018-03-22T17:16:37.884017","emg","-7","-10","-9","-5","16","9","-2","-15","2018-03-22T17:16:37.883007"
"2018-03-22T17:16:37.884333","emg","0","-5","-6","-3","-34","11","4","4","2018-03-22T17:16:37.883535"
"2018-03-22T17:16:37.885447","acc","800","1082","1544","gyro","152","-2810","4567","quat","6135","4403","2626","14300","2018-03-22T17:16:37.884736"
"2018-03-22T17:16:37.890801","emg","-5","0","-6","0","6","43","-5","-1","2018-03-22T17:16:37.889745"
"2018-03-22T17:16:37.891234","emg","3","5","27","15","7","64","-2","5","2018-03-22T17:16:37.890315"
"2018-03-22T17:16:37.898268","emg","8","5","0","2","-14","-24","-13","7","2018-03-22T17:16:37.897213"
"2018-03-22T17:16:37.898587","emg","-1","1","5","8","54","29","-7","-10","2018-03-22T17:16:37.897752"
"2018-03-22T17:16:37.906673","acc","1287","1075","1493","gyro","324","-2675","4123","quat","5543","4962","2296","14415","2018-03-22T17:16:37.905658"
"2018-03-22T17:16:37.907760","emg","-4","-4","-15","-15","-40","-40","5","2","2018-03-22T17:16:37.906999"
"2018-03-22T17:16:37.908071","emg","-6","-9","-21","-10","-4","-84","-11","-11","2018-03-22T17:16:37.907340"
"2018-03-22T17:16:37.920962","emg","-5","-18","-17","-29","-15","0","7","8","2018-03-22T17:16:37.919832"
"2018-03-22T17:16:37.921345","emg","1","6","-21","13","-18","-89","-5","0","2018-03-22T17:16:37.920455"
"2018-03-22T17:16:37.928927","acc","1551","1254","1424","gyro","264","-2312","3687","quat","4999","5440","2000","14485","2018-03-22T17:16:37.927824"
"2018-03-22T17:16:37.930233","emg","3","22","82","20","2","-22","2","-5","2018-03-22T17:16:37.929430"
"2018-03-22T17:16:37.930602","emg","-3","-1","-6","-2","22","-29","-19","-2","2018-03-22T17:16:37.929839"
"2018-03-22T17:16:37.935838","emg","0","-3","-5","-16","-81","-19","5","3","2018-03-22T17:16:37.934836"
"2018-03-22T17:16:37.936193","emg","-3","-23","-49","-11","71","-10","2","-2","2018-03-22T17:16:37.935346"
"2018-03-22T17:16:37.943509","acc","1483","1130","1417","gyro","-186","-2197","3263","quat","4538","5850","1661","14520","2018-03-22T17:16:37.942540"
"2018-03-22T17:16:37.950106","emg","2","2","-3","10","91","-11","5","7","2018-03-22T17:16:37.949191"
"2018-03-22T17:16:37.950453","emg","-5","7","29","-10","-109","-39","-14","-13","2018-03-22T17:16:37.949660"
"2018-03-22T17:16:37.957606","emg","0","2","-11","16","42","-31","13","11","2018-03-22T17:16:37.956768"
"2018-03-22T17:16:37.958015","emg","-1","-8","-2","-10","23","20","3","3","2018-03-22T17:16:37.957210"
"2018-03-22T17:16:37.966733","acc","1429","948","1453","gyro","-757","-2297","2988","quat","4152","6227","1240","14521","2018-03-22T17:16:37.965629"
"2018-03-22T17:16:37.967803","emg","-9","-7","-19","-21","-98","-5","-21","-25","2018-03-22T17:16:37.967179"
"2018-03-22T17:16:37.968114","emg","4","21","0","11","25","35","4","-3","2018-03-22T17:16:37.967485"
"2018-03-22T17:16:37.980533","emg","6","21","59","32","10","-33","14","12","2018-03-22T17:16:37.979526"
"2018-03-22T17:16:37.980900","emg","-1","4","13","7","1","58","-13","-11","2018-03-22T17:16:37.980052"
"2018-03-22T17:16:37.988939","acc","1675","779","1258","gyro","-902","-2303","2627","quat","3826","6588","817","14481","2018-03-22T17:16:37.987858"
"2018-03-22T17:16:37.990197","emg","-1","-14","-10","-1","69","33","15","10","2018-03-22T17:16:37.989435"
"2018-03-22T17:16:37.990561","emg","0","-16","-33","-4","11","-2","11","2","2018-03-22T17:16:37.989786"
"2018-03-22T17:16:37.995529","emg","-7","-16","-42","-25","-47","-30","-14","-8","2018-03-22T17:16:37.994472"
"2018-03-22T17:16:37.995897","emg","-5","2","28","-13","-35","-7","-1","5","2018-03-22T17:16:37.995004"
"2018-03-22T17:16:38.003165","acc","1816","686","1238","gyro","-692","-2158","2358","quat","3520","6923","451","14418","2018-03-22T17:16:38.002235"
"2018-03-22T17:16:38.010891","emg","4","8","3","4","-8","8","1","4","2018-03-22T17:16:38.009818"
"2018-03-22T17:16:38.011268","emg","-5","-22","-15","-10","-18","-24","-3","1","2018-03-22T17:16:38.010418"
"2018-03-22T17:16:38.018357","emg","6","18","22","30","91","50","7","-7","2018-03-22T17:16:38.017291"
"2018-03-22T17:16:38.018726","emg","4","12","14","10","18","0","5","2","2018-03-22T17:16:38.017824"
"2018-03-22T17:16:38.026814","acc","1890","492","1175","gyro","-617","-2057","2011","quat","3259","7234","124","14333","2018-03-22T17:16:38.025723"
"2018-03-22T17:16:38.028031","emg","-1","0","-21","-16","-34","-38","2","-7","2018-03-22T17:16:38.027317"
"2018-03-22T17:16:38.028394","emg","-4","-3","5","-1","-9","-43","-3","2","2018-03-22T17:16:38.027664"
"2018-03-22T17:16:38.040410","emg","-1","-6","-4","11","35","26","-2","-9","2018-03-22T17:16:38.039352"
"2018-03-22T17:16:38.040788","emg","-1","-1","-12","-18","-21","-23","9","-10","2018-03-22T17:16:38.039938"
"2018-03-22T17:16:38.048954","acc","1938","355","1181","gyro","-780","-2097","1600","quat","3071","7537","-199","14217","2018-03-22T17:16:38.047915"
"2018-03-22T17:16:38.050218","emg","-7","1","1","6","41","1","-19","-22","2018-03-22T17:16:38.049462"
"2018-03-22T17:16:38.050583","emg","3","-2","6","1","-68","-7","24","13","2018-03-22T17:16:38.049813"
"2018-03-22T17:16:38.056161","emg","-9","-14","-29","-20","-2","-20","-24","-5","2018-03-22T17:16:38.055116"
"2018-03-22T17:16:38.056528","emg","-4","0","3","1","36","-28","-4","0","2018-03-22T17:16:38.055692"
"2018-03-22T17:16:38.063231","acc","2069","257","1076","gyro","-593","-1954","1275","quat","2916","7819","-463","14091","2018-03-22T17:16:38.062301"
"2018-03-22T17:16:38.070929","emg","-1","2","10","5","-32","1","5","-1","2018-03-22T17:16:38.069847"
"2018-03-22T17:16:38.071287","emg","-2","-5","-7","3","61","8","2","3","2018-03-22T17:16:38.070432"
"2018-03-22T17:16:38.078068","emg","1","0","-6","-14","-27","-13","-1","2","2018-03-22T17:16:38.077053"
"2018-03-22T17:16:38.078435","emg","2","6","9","4","-28","-12","1","5","2018-03-22T17:16:38.077561"
"2018-03-22T17:16:38.086782","acc","2089","236","1078","gyro","-377","-1699","1187","quat","2755","8064","-676","13976","2018-03-22T17:16:38.085677"
"2018-03-22T17:16:38.088017","emg","0","-5","-4","0","-11","-17","-6","8","2018-03-22T17:16:38.087292"
"2018-03-22T17:16:38.088382","emg","1","-1","1","-1","-3","-9","-7","7","2018-03-22T17:16:38.087643"
"2018-03-22T17:16:38.100476","emg","-1","1","7","0","-11","19","12","-8","2018-03-22T17:16:38.099438"
"2018-03-22T17:16:38.100839","emg","-5","-8","-9","3","11","-1","1","-8","2018-03-22T17:16:38.099965"
"2018-03-22T17:16:38.108870","acc","2025","306","1049","gyro","-116","-1459","1010","quat","2606","8281","-816","13870","2018-03-22T17:16:38.107800"
"2018-03-22T17:16:38.110140","emg","-3","-5","-13","-10","24","3","-6","-2","2018-03-22T17:16:38.109381"
"2018-03-22T17:16:38.110511","emg","-2","2","-7","1","-19","-1","-13","0","2018-03-22T17:16:38.109732"
"2018-03-22T17:16:38.115877","emg","0","4","18","1","-7","-16","-7","1","2018-03-22T17:16:38.114833"
"2018-03-22T17:16:38.116270","emg","1","-4","-7","-2","-11","4","8","12","2018-03-22T17:16:38.115399"
"2018-03-22T17:16:38.123078","acc","2003","331","1237","gyro","283","-1176","687","quat","2476","8447","-852","13791","2018-03-22T17:16:38.122138"
"2018-03-22T17:16:38.130855","emg","-2","0","5","6","0","-8","1","-5","2018-03-22T17:16:38.129771"
"2018-03-22T17:16:38.131246","emg","-1","-3","-1","7","63","5","-6","-7","2018-03-22T17:16:38.130382"
"2018-03-22T17:16:38.138077","emg","-5","-7","-15","-7","-12","7","2","7","2018-03-22T17:16:38.137059"
"2018-03-22T17:16:38.138452","emg","3","5","14","0","-29","34","3","-3","2018-03-22T17:16:38.137568"
"2018-03-22T17:16:38.146764","acc","1939","239","1174","gyro","788","-627","383","quat","2345","8546","-777","13758","2018-03-22T17:16:38.145645"
"2018-03-22T17:16:38.147996","emg","-1","-2","-8","-4","-16","-6","-17","0","2018-03-22T17:16:38.147274"
"2018-03-22T17:16:38.148357","emg","1","-1","3","1","12","7","5","-4","2018-03-22T17:16:38.147625"
"2018-03-22T17:16:38.160560","emg","-2","-1","-9","0","4","14","5","-10","2018-03-22T17:16:38.159539"
"2018-03-22T17:16:38.160920","emg","0","0","1","-3","-5","-18","-12","-2","2018-03-22T17:16:38.160070"
"2018-03-22T17:16:38.168928","acc","1985","1076","1785","gyro","1180","49","255","quat","2247","8517","-545","13803","2018-03-22T17:16:38.167846"
"2018-03-22T17:16:38.170201","emg","2","-3","-7","-1","-11","3","13","5","2018-03-22T17:16:38.169419"
"2018-03-22T17:16:38.170569","emg","-2","0","2","-1","5","2","-2","-8","2018-03-22T17:16:38.169789"
"2018-03-22T17:16:38.175840","emg","1","1","3","4","14","20","-1","-1","2018-03-22T17:16:38.174847"
"2018-03-22T17:16:38.176206","emg","-1","0","-1","-2","-22","-22","-7","-6","2018-03-22T17:16:38.175359"
"2018-03-22T17:16:38.183485","acc","1566","592","1599","gyro","1711","755","-174","quat","2125","8431","-244","13884","2018-03-22T17:16:38.182519"
"2018-03-22T17:16:38.190896","emg","-2","-2","-8","-5","16","-22","-4","2","2018-03-22T17:16:38.189839"
"2018-03-22T17:16:38.191255","emg","0","0","-2","-10","-11","-66","-8","0","2018-03-22T17:16:38.190401"
"2018-03-22T17:16:38.198515","emg","1","-3","-1","-3","17","-6","11","6","2018-03-22T17:16:38.197398"
"2018-03-22T17:16:38.198898","emg","2","-2","1","-2","-24","1","-6","9","2018-03-22T17:16:38.198046"
"2018-03-22T17:16:38.206808","acc","935","490","1156","gyro","1508","412","-59","quat","2016","8357","29","13946","2018-03-22T17:16:38.205702"
"2018-03-22T17:16:38.208032","emg","0","-2","-5","-6","7","29","9","6","2018-03-22T17:16:38.207318"
"2018-03-22T17:16:38.208392","emg","1","1","4","2","-5","-2","-3","3","2018-03-22T17:16:38.207666"
"2018-03-22T17:16:38.220869","emg","-2","2","-4","-4","-13","-8","-6","-1","2018-03-22T17:16:38.219944"
"2018-03-22T17:16:38.221199","emg","-2","-3","-3","3","28","-23","6","-1","2018-03-22T17:16:38.220428"
"2018-03-22T17:16:38.228909","acc","1246","360","780","gyro","1697","-167","46","quat","1856","8417","282","13930","2018-03-22T17:16:38.227853"
"2018-03-22T17:16:38.230174","emg","0","2","1","-3","-32","11","-1","-8","2018-03-22T17:16:38.229420"
"2018-03-22T17:16:38.230543","emg","1","1","3","3","7","3","6","-1","2018-03-22T17:16:38.229772"
"2018-03-22T17:16:38.235850","emg","2","0","0","2","20","10","4","-1","2018-03-22T17:16:38.234825"
"2018-03-22T17:16:38.236213","emg","-5","-5","-9","-11","-3","-24","-8","-6","2018-03-22T17:16:38.235352"
"2018-03-22T17:16:38.243540","acc","1537","386","708","gyro","1612","-247","53","quat","1702","8488","520","13900","2018-03-22T17:16:38.242537"
"2018-03-22T17:16:38.250882","emg","0","-2","-1","0","-3","-5","8","0","2018-03-22T17:16:38.249797"
"2018-03-22T17:16:38.251257","emg","-1","2","8","15","66","75","-7","1","2018-03-22T17:16:38.250414"
"2018-03-22T17:16:38.258452","emg","2","1","-1","1","-41","11","6","7","2018-03-22T17:16:38.257327"
"2018-03-22T17:16:38.258894","emg","1","3","2","-10","-62","-7","-10","-8","2018-03-22T17:16:38.257910"
"2018-03-22T17:16:38.266249","acc","1468","444","963","gyro","1156","-230","214","quat","1572","8530","683","13882","2018-03-22T17:16:38.265217"
"2018-03-22T17:16:38.267502","emg","-1","2","1","-2","-42","13","-1","6","2018-03-22T17:16:38.266768"
"2018-03-22T17:16:38.267865","emg","-3","-5","-6","-6","43","7","-6","-5","2018-03-22T17:16:38.267130"
"2018-03-22T17:16:38.280689","emg","-2","-3","0","-5","-14","-16","-14","-2","2018-03-22T17:16:38.279515"
"2018-03-22T17:16:38.281062","emg","2","2","5","14","26","56","15","2","2018-03-22T17:16:38.280151"
"2018-03-22T17:16:38.288869","acc","1562","401","1040","gyro","674","-184","365","quat","1461","8554","754","13876","2018-03-22T17:16:38.287850"
"2018-03-22T17:16:38.290139","emg","-3","-4","-2","-4","-43","-54","-16","-6","2018-03-22T17:16:38.289381"
"2018-03-22T17:16:38.290552","emg","-3","-3","-4","-3","53","111","15","-3","2018-03-22T17:16:38.289727"
"2018-03-22T17:16:38.295800","emg","1","1","4","15","71","101","3","1","2018-03-22T17:16:38.294775"
"2018-03-22T17:16:38.296177","emg","-13","-11","-17","-32","-72","-20","-47","-12","2018-03-22T17:16:38.295335"
"2018-03-22T17:16:38.303242","acc","1735","157","1026","gyro","276","-218","388","quat","1371","8584","741","13867","2018-03-22T17:16:38.302273"
"2018-03-22T17:16:38.310853","emg","3","1","2","8","59","82","8","1","2018-03-22T17:16:38.309799"
"2018-03-22T17:16:38.311224","emg","1","2","1","-8","-52","-7","0","1","2018-03-22T17:16:38.310382"
"2018-03-22T17:16:38.318312","emg","2","-1","0","3","5","-93","1","17","2018-03-22T17:16:38.317266"
"2018-03-22T17:16:38.318701","emg","1","2","4","15","51","32","23","-2","2018-03-22T17:16:38.317801"
"2018-03-22T17:16:38.326327","acc","1827","62","1040","gyro","201","-211","282","quat","1298","8612","720","13858","2018-03-22T17:16:38.325270"
"2018-03-22T17:16:38.327556","emg","2","1","2","7","12","-53","-11","-1","2018-03-22T17:16:38.326839"
"2018-03-22T17:16:38.327918","emg","2","6","4","-2","-20","-109","-1","12","2018-03-22T17:16:38.327186"
"2018-03-22T17:16:38.340478","emg","1","3","2","-4","-44","-59","-9","2","2018-03-22T17:16:38.339493"
"2018-03-22T17:16:38.340845","emg","7","5","8","18","63","58","40","22","2018-03-22T17:16:38.340002"
"2018-03-22T17:16:38.348899","acc","1814","-39","1148","gyro","464","-170","271","quat","1198","8628","732","13856","2018-03-22T17:16:38.347863"
"2018-03-22T17:16:38.350205","emg","-3","2","1","0","-24","25","-18","-11","2018-03-22T17:16:38.349412"
"2018-03-22T17:16:38.350561","emg","-4","-4","-3","3","2","-56","-11","-7","2018-03-22T17:16:38.349763"
"2018-03-22T17:16:38.355616","emg","-3","-2","-3","-19","-94","2","-1","-10","2018-03-22T17:16:38.354613"
"2018-03-22T17:16:38.355986","emg","-4","-2","4","14","73","58","-2","-11","2018-03-22T17:16:38.355146"
"2018-03-22T17:16:38.363096","acc","1703","-18","1183","gyro","858","-101","330","quat","1053","8632","801","13862","2018-03-22T17:16:38.362106"
"2018-03-22T17:16:38.370900","emg","6","2","0","-2","-13","-1","-7","8","2018-03-22T17:16:38.369833"
"2018-03-22T17:16:38.371272","emg","4","2","3","0","-68","32","16","3","2018-03-22T17:16:38.370428"
"2018-03-22T17:16:38.378338","emg","-10","-7","-6","3","37","-29","-21","-24","2018-03-22T17:16:38.377289"
"2018-03-22T17:16:38.378717","emg","0","-4","-8","-12","-12","18","3","-7","2018-03-22T17:16:38.377825"
"2018-03-22T17:16:38.386723","acc","1562","190","1165","gyro","1039","-113","287","quat","910","8634","920","13863","2018-03-22T17:16:38.385636"
"2018-03-22T17:16:38.387959","emg","-6","-6","-6","-16","-15","-66","-1","-1","2018-03-22T17:16:38.387238"
"2018-03-22T17:16:38.388319","emg","-1","1","4","12","36","-24","0","-5","2018-03-22T17:16:38.387589"
"2018-03-22T17:16:38.400478","emg","-2","-5","-7","-7","-9","-20","-5","-2","2018-03-22T17:16:38.399408"
"2018-03-22T17:16:38.400849","emg","4","3","3","-3","-21","-69","13","13","2018-03-22T17:16:38.400004"
"2018-03-22T17:16:38.408884","acc","1640","486","1046","gyro","944","-217","163","quat","809","8658","1059","13845","2018-03-22T17:16:38.407847"
"2018-03-22T17:16:38.410152","emg","-4","0","1","1","27","1","-18","-19","2018-03-22T17:16:38.409394"
"2018-03-22T17:16:38.410514","emg","0","1","0","-5","-46","-4","-3","0","2018-03-22T17:16:38.409740"
"2018-03-22T17:16:38.415819","emg","-2","-4","-6","1","46","30","6","-6","2018-03-22T17:16:38.414807"
"2018-03-22T17:16:38.416194","emg","-10","-7","-3","4","-5","-20","-21","-29","2018-03-22T17:16:38.415345"
"2018-03-22T17:16:38.423064","acc","1798","654","842","gyro","522","-276","129","quat","760","8706","1149","13810","2018-03-22T17:16:38.422125"
"2018-03-22T17:16:38.430819","emg","3","0","-2","-9","-10","-1","16","20","2018-03-22T17:16:38.429762"
"2018-03-22T17:16:38.431186","emg","-1","0","2","-2","-3","-4","-3","3","2018-03-22T17:16:38.430348"
"2018-03-22T17:16:38.438353","emg","-1","-2","-1","0","-1","-8","-16","-8","2018-03-22T17:16:38.437228"
"2018-03-22T17:16:38.438718","emg","1","2","0","-3","-17","18","-6","2","2018-03-22T17:16:38.437772"
"2018-03-22T17:16:38.446749","acc","1799","600","737","gyro","-2","-244","161","quat","752","8751","1154","13781","2018-03-22T17:16:38.445324"
"2018-03-22T17:16:38.447913","emg","-1","-5","-7","4","16","-29","13","12","2018-03-22T17:16:38.447130"
"2018-03-22T17:16:38.448276","emg","-6","-4","-5","1","8","12","1","-24","2018-03-22T17:16:38.447518"
"2018-03-22T17:16:38.460117","emg","4","3","-1","-5","6","20","-14","25","2018-03-22T17:16:38.459330"
"2018-03-22T17:16:38.460491","emg","-1","0","-1","-5","-18","-21","0","-1","2018-03-22T17:16:38.459726"
"2018-03-22T17:16:38.468853","acc","1738","505","721","gyro","-459","-241","163","quat","784","8791","1084","13760","2018-03-22T17:16:38.467824"
"2018-03-22T17:16:38.470119","emg","-4","-4","-4","0","17","-1","5","-5","2018-03-22T17:16:38.469362"
"2018-03-22T17:16:38.470477","emg","3","-1","-2","-5","-4","-8","1","15","2018-03-22T17:16:38.469707"
"2018-03-22T17:16:38.475593","emg","-2","-4","-1","0","-1","16","2","-11","2018-03-22T17:16:38.474693"
"2018-03-22T17:16:38.475917","emg","-4","-2","0","-2","-11","-68","-13","-5","2018-03-22T17:16:38.475176"
"2018-03-22T17:16:38.483342","acc","1772","350","647","gyro","-678","-272","174","quat","828","8840","968","13735","2018-03-22T17:16:38.482517"
"2018-03-22T17:16:38.490596","emg","0","1","-1","1","-1","20","-2","0","2018-03-22T17:16:38.489648"
"2018-03-22T17:16:38.490922","emg","-1","-3","-2","-3","5","-6","-2","7","2018-03-22T17:16:38.490186"
"2018-03-22T17:16:38.498283","emg","-4","-2","-1","0","9","23","3","-10","2018-03-22T17:16:38.497235"
"2018-03-22T17:16:38.498655","emg","1","1","1","-1","-5","-13","-3","2","2018-03-22T17:16:38.497774"
"2018-03-22T17:16:38.506512","acc","1885","185","621","gyro","-690","-282","259","quat","852","8896","830","13706","2018-03-22T17:16:38.505458"
"2018-03-22T17:16:38.507734","emg","0","0","0","3","4","9","6","-1","2018-03-22T17:16:38.507027"
"2018-03-22T17:16:38.508084","emg","-1","-1","-2","-3","0","13","-1","2","2018-03-22T17:16:38.507374"
"2018-03-22T17:16:38.520341","emg","1","0","0","-2","7","18","10","0","2018-03-22T17:16:38.519362"
"2018-03-22T17:16:38.520704","emg","3","-1","-1","-1","-3","3","0","6","2018-03-22T17:16:38.519873"
"2018-03-22T17:16:38.528891","acc","1936","134","610","gyro","-583","-285","298","quat","858","8954","701","13675","2018-03-22T17:16:38.527865"
"2018-03-22T17:16:38.530168","emg","-1","0","-2","0","0","0","15","6","2018-03-22T17:16:38.529407"
"2018-03-22T17:16:38.530554","emg","-7","-3","-2","0","0","17","-16","-9","2018-03-22T17:16:38.529756"
"2018-03-22T17:16:38.535817","emg","6","-1","0","1","4","7","6","4","2018-03-22T17:16:38.534827"
"2018-03-22T17:16:38.536185","emg","-1","0","-2","-4","-5","9","-1","5","2018-03-22T17:16:38.535350"
"2018-03-22T17:16:38.543548","acc","1963","64","593","gyro","-457","-293","303","quat","849","9014","587","13642","2018-03-22T17:16:38.542529"
"2018-03-22T17:16:38.550517","emg","-5","-5","-4","-3","-7","-22","-19","-36","2018-03-22T17:16:38.549399"
"2018-03-22T17:16:38.550887","emg","-3","1","0","-1","2","6","-1","-1","2018-03-22T17:16:38.550039"
"2018-03-22T17:16:38.558339","emg","-5","0","-1","-1","1","-8","5","4","2018-03-22T17:16:38.557297"
"2018-03-22T17:16:38.558733","emg","-2","-1","0","1","-4","8","-9","-4","2018-03-22T17:16:38.557830"
"2018-03-22T17:16:38.566455","acc","1923","75","592","gyro","-291","-257","303","quat","825","9068","500","13611","2018-03-22T17:16:38.565381"
"2018-03-22T17:16:38.567684","emg","1","-1","0","0","7","13","3","5","2018-03-22T17:16:38.566965"
"2018-03-22T17:16:38.568047","emg","0","-1","-1","-2","-1","-9","3","3","2018-03-22T17:16:38.567315"
"2018-03-22T17:16:38.580096","emg","-2","0","0","2","5","18","-3","-10","2018-03-22T17:16:38.579295"
"2018-03-22T17:16:38.580465","emg","1","-1","-1","-1","-5","4","2","4","2018-03-22T17:16:38.579699"
"2018-03-22T17:16:38.588960","acc","1890","137","573","gyro","-174","-253","254","quat","802","9121","442","13579","2018-03-22T17:16:38.587855"
"2018-03-22T17:16:38.590229","emg","0","-2","1","1","7","32","5","8","2018-03-22T17:16:38.589465"
"2018-03-22T17:16:38.590593","emg","1","-3","-1","-4","-9","-10","0","0","2018-03-22T17:16:38.589823"
"2018-03-22T17:16:38.595809","emg","0","-1","-1","-1","-6","-10","0","-1","2018-03-22T17:16:38.594802"
"2018-03-22T17:16:38.596175","emg","0","-1","0","-1","-1","1","3","2","2018-03-22T17:16:38.595338"
"2018-03-22T17:16:38.603480","acc","1914","186","524","gyro","-143","-240","188","quat","788","9174","400","13545","2018-03-22T17:16:38.602539"
"2018-03-22T17:16:38.610945","emg","-1","0","1","3","6","10","-6","-1","2018-03-22T17:16:38.609907"
"2018-03-22T17:16:38.611301","emg","3","-1","0","-2","-3","18","2","2","2018-03-22T17:16:38.610475"
"2018-03-22T17:16:38.618291","emg","1","-1","0","0","1","-3","2","1","2018-03-22T17:16:38.617259"
"2018-03-22T17:16:38.618663","emg","-1","-2","0","-1","-3","-2","4","2","2018-03-22T17:16:38.617785"
"2018-03-22T17:16:38.626402","acc","1934","207","524","gyro","-143","-214","135","quat","783","9223","366","13513","2018-03-22T17:16:38.625330"
"2018-03-22T17:16:38.627633","emg","-1","-1","-3","-2","2","-2","-10","-3","2018-03-22T17:16:38.626915"
"2018-03-22T17:16:38.627990","emg","0","-2","-1","-1","0","13","2","-2","2018-03-22T17:16:38.627263"
"2018-03-22T17:16:38.640391","emg","-3","-2","-3","1","0","-18","-3","-1","2018-03-22T17:16:38.639407"
"2018-03-22T17:16:38.640749","emg","0","-1","-3","0","-2","-2","-4","-5","2018-03-22T17:16:38.639917"
"2018-03-22T17:16:38.649576","acc","1990","229","468","gyro","-157","-192","79","quat","790","9273","338","13479","2018-03-22T17:16:38.648352"
"2018-03-22T17:16:38.651025","emg","0","-1","-1","0","2","-1","7","11","2018-03-22T17:16:38.650198"
"2018-03-22T17:16:38.651386","emg","-2","0","-2","0","8","14","0","-4","2018-03-22T17:16:38.650630"
"2018-03-22T17:16:38.655799","emg","-2","0","-1","0","-2","-1","-2","0","2018-03-22T17:16:38.654838"
"2018-03-22T17:16:38.656159","emg","1","0","-3","-1","-5","-5","2","3","2018-03-22T17:16:38.655335"
"2018-03-22T17:16:38.662958","acc","2071","183","461","gyro","-141","-175","-36","quat","808","9321","319","13445","2018-03-22T17:16:38.662060"
"2018-03-22T17:16:38.670959","emg","-1","1","2","2","2","6","1","3","2018-03-22T17:16:38.669821"
"2018-03-22T17:16:38.671344","emg","-1","-1","-2","-2","-3","-6","-2","-2","2018-03-22T17:16:38.670491"
"2018-03-22T17:16:38.678349","emg","1","1","0","-1","1","1","2","-2","2018-03-22T17:16:38.677316"
"2018-03-22T17:16:38.678730","emg","-2","-1","2","0","0","-9","-1","-1","2018-03-22T17:16:38.677842"
"2018-03-22T17:16:38.686538","acc","1944","171","596","gyro","-194","-121","-10","quat","829","9347","290","13427","2018-03-22T17:16:38.685494"
"2018-03-22T17:16:38.687678","emg","-3","-4","-4","-6","-5","5","5","-2","2018-03-22T17:16:38.686961"
"2018-03-22T17:16:38.687985","emg","-1","0","-1","0","-4","6","-1","-5","2018-03-22T17:16:38.687313"
"2018-03-22T17:16:38.700168","emg","1","-2","-1","-1","-1","4","1","4","2018-03-22T17:16:38.699318"
"2018-03-22T17:16:38.700477","emg","-1","-2","-2","-1","-2","5","-2","-2","2018-03-22T17:16:38.699798"
"2018-03-22T17:16:38.708857","acc","1857","122","668","gyro","-80","-101","46","quat","828","9363","269","13416","2018-03-22T17:16:38.707812"
"2018-03-22T17:16:38.709968","emg","-1","0","-1","0","-3","-7","2","0","2018-03-22T17:16:38.709186"
