"2018-03-27T16:04:53.372789","emg","18","2","5","-3","1","-1","2","27","2018-03-27T16:04:53.371603"
"2018-03-27T16:04:53.373267","emg","-5","0","-10","-1","-7","-19","-12","-10","2018-03-27T16:04:53.372173"
"2018-03-27T16:04:53.380816","acc","-1548","-1009","-2318","gyro","820","-2191","785","quat","-4166","14033","4770","-5602","2018-03-27T16:04:53.379872"
"2018-03-27T16:04:53.381899","emg","-7","1","-24","-15","-12","-16","-6","-7","2018-03-27T16:04:53.381115"
"2018-03-27T16:04:53.382256","emg","9","24","36","10","14","18","15","19","2018-03-27T16:04:53.381529"
"2018-03-27T16:04:53.387932","emg","4","-37","-51","-11","1","-1","7","6","2018-03-27T16:04:53.386853"
"2018-03-27T16:04:53.388250","emg","-7","9","8","4","17","35","5","-2","2018-03-27T16:04:53.387475"
"2018-03-27T16:04:53.403958","acc","-1491","-848","-2179","gyro","-638","-2846","321","quat","-3879","13908","4882","-6010","2018-03-27T16:04:53.402857"
"2018-03-27T16:04:53.405026","emg","-12","-7","4","3","-1","-13","-7","-7","2018-03-27T16:04:53.404252"
"2018-03-27T16:04:53.405328","emg","18","4","-2","8","13","40","14","12","2018-03-27T16:04:53.404649"
"2018-03-27T16:04:53.410579","emg","-12","12","7","-6","-21","-47","-11","-16","2018-03-27T16:04:53.409475"
"2018-03-27T16:04:53.410895","emg","4","-2","2","-8","-14","-10","3","8","2018-03-27T16:04:53.410131"
"2018-03-27T16:04:53.427127","acc","-1363","-834","-1917","gyro","-1168","-3180","-237","quat","-3529","13735","5123","-6409","2018-03-27T16:04:53.425953"
"2018-03-27T16:04:53.428705","emg","23","16","18","9","-2","-20","-2","13","2018-03-27T16:04:53.427911"
"2018-03-27T16:04:53.429017","emg","-55","-37","-11","-9","0","-4","-17","-36","2018-03-27T16:04:53.428300"
"2018-03-27T16:04:53.432242","emg","38","5","10","-3","-6","22","16","27","2018-03-27T16:04:53.431405"
"2018-03-27T16:04:53.432619","emg","26","33","14","13","22","13","11","15","2018-03-27T16:04:53.431799"
"2018-03-27T16:04:53.441191","acc","-1259","-939","-1893","gyro","-1174","-3393","-785","quat","-3205","13496","5449","-6806","2018-03-27T16:04:53.440149"
"2018-03-27T16:04:53.442349","emg","-6","1","4","0","-3","-10","-4","-1","2018-03-27T16:04:53.441517"
"2018-03-27T16:04:53.442653","emg","4","3","0","5","28","52","8","0","2018-03-27T16:04:53.441871"
"2018-03-27T16:04:53.447412","emg","-24","1","9","7","3","3","1","-20","2018-03-27T16:04:53.446510"
"2018-03-27T16:04:53.447723","emg","-1","-15","-15","-18","-18","-21","-12","-8","2018-03-27T16:04:53.446976"
"2018-03-27T16:04:53.464480","acc","-1145","-951","-1798","gyro","-932","-3503","-1409","quat","-2952","13181","5844","-7199","2018-03-27T16:04:53.463210"
"2018-03-27T16:04:53.466206","emg","7","1","8","13","3","20","11","5","2018-03-27T16:04:53.465121"
"2018-03-27T16:04:53.466596","emg","-19","-4","-6","-9","3","32","-3","-15","2018-03-27T16:04:53.465667"
"2018-03-27T16:04:53.471067","emg","-1","-5","-8","-3","-5","-65","-12","-1","2018-03-27T16:04:53.469905"
"2018-03-27T16:04:53.471389","emg","-23","-7","-1","1","14","-17","-14","-18","2018-03-27T16:04:53.470571"
"2018-03-27T16:04:53.486129","acc","-1033","-841","-1665","gyro","-435","-3586","-1857","quat","-2796","12791","6257","-7606","2018-03-27T16:04:53.485077"
"2018-03-27T16:04:53.487233","emg","21","0","4","9","22","41","6","9","2018-03-27T16:04:53.486463"
"2018-03-27T16:04:53.487545","emg","-14","-8","-17","-20","-49","-37","-3","-2","2018-03-27T16:04:53.486799"
"2018-03-27T16:04:53.492679","emg","-13","6","5","2","0","53","8","-1","2018-03-27T16:04:53.491636"
"2018-03-27T16:04:53.492990","emg","16","-3","1","6","11","20","11","4","2018-03-27T16:04:53.492169"
"2018-03-27T16:04:53.501016","acc","-871","-796","-1545","gyro","-264","-3593","-2229","quat","-2688","12346","6696","-7997","2018-03-27T16:04:53.499985"
"2018-03-27T16:04:53.502317","emg","-38","-13","-9","-18","-44","-102","-46","-35","2018-03-27T16:04:53.501535"
"2018-03-27T16:04:53.502680","emg","39","11","1","8","14","66","23","30","2018-03-27T16:04:53.501899"
"2018-03-27T16:04:53.507829","emg","5","10","11","8","20","7","-6","8","2018-03-27T16:04:53.506828"
"2018-03-27T16:04:53.508195","emg","-48","-12","-1","-3","6","32","6","-25","2018-03-27T16:04:53.507357"
"2018-03-27T16:04:53.523947","acc","-698","-621","-1355","gyro","-109","-3489","-2546","quat","-2631","11855","7147","-8360","2018-03-27T16:04:53.522850"
"2018-03-27T16:04:53.525225","emg","30","1","-6","-10","-21","-5","7","19","2018-03-27T16:04:53.524464"
"2018-03-27T16:04:53.525585","emg","8","-6","-10","-10","-11","-14","-4","-5","2018-03-27T16:04:53.524835"
"2018-03-27T16:04:53.529796","emg","20","13","13","15","25","-25","11","21","2018-03-27T16:04:53.529001"
"2018-03-27T16:04:53.530209","emg","13","3","2","4","-21","56","25","22","2018-03-27T16:04:53.529401"
"2018-03-27T16:04:53.546049","acc","-564","-561","-1369","gyro","-27","-3352","-2794","quat","-2611","11331","7604","-8683","2018-03-27T16:04:53.544914"
"2018-03-27T16:04:53.547320","emg","-15","-9","-6","3","20","-61","-15","-20","2018-03-27T16:04:53.546572"
"2018-03-27T16:04:53.547685","emg","-46","-7","-12","-13","-37","-33","-17","-25","2018-03-27T16:04:53.546941"
"2018-03-27T16:04:53.552577","emg","14","-22","12","3","14","25","-5","2","2018-03-27T16:04:53.551525"
"2018-03-27T16:04:53.552945","emg","27","7","-5","-3","-23","-67","1","17","2018-03-27T16:04:53.552078"
"2018-03-27T16:04:53.561140","acc","-536","-611","-1385","gyro","-505","-3287","-2945","quat","-2545","10789","8107","-8934","2018-03-27T16:04:53.560073"
"2018-03-27T16:04:53.562442","emg","-4","6","4","5","48","92","17","2","2018-03-27T16:04:53.561663"
"2018-03-27T16:04:53.562812","emg","-2","-4","-5","-3","-31","-5","-6","-10","2018-03-27T16:04:53.562062"
"2018-03-27T16:04:53.567606","emg","-8","1","-5","0","0","-52","-11","7","2018-03-27T16:04:53.566543"
"2018-03-27T16:04:53.568111","emg","-23","-22","-18","-8","-20","-5","-19","-36","2018-03-27T16:04:53.567082"
"2018-03-27T16:04:53.583521","acc","-497","-601","-1281","gyro","-1143","-3189","-3057","quat","-2417","10237","8664","-9095","2018-03-27T16:04:53.582477"
"2018-03-27T16:04:53.584873","emg","42","11","10","-10","-12","1","4","41","2018-03-27T16:04:53.584033"
"2018-03-27T16:04:53.585241","emg","-23","-2","15","11","25","-29","-8","-22","2018-03-27T16:04:53.584484"
"2018-03-27T16:04:53.590511","emg","29","16","-17","-2","-1","44","16","27","2018-03-27T16:04:53.589422"
"2018-03-27T16:04:53.590892","emg","-1","26","34","-2","3","-2","-16","-35","2018-03-27T16:04:53.590059"
"2018-03-27T16:04:53.606528","acc","-328","-719","-1215","gyro","-1607","-2963","-3153","quat","-2266","9683","9251","-9162","2018-03-27T16:04:53.605413"
"2018-03-27T16:04:53.607791","emg","-12","-62","-42","6","11","19","23","47","2018-03-27T16:04:53.607034"
"2018-03-27T16:04:53.608157","emg","94","37","5","13","20","2","2","38","2018-03-27T16:04:53.607415"
"2018-03-27T16:04:53.612683","emg","-38","-13","34","2","-11","-23","-10","-13","2018-03-27T16:04:53.611629"
"2018-03-27T16:04:53.613047","emg","-14","-36","-36","-11","7","-3","14","22","2018-03-27T16:04:53.612190"
"2018-03-27T16:04:53.621131","acc","-159","-1028","-1230","gyro","-1873","-2671","-3122","quat","-2111","9141","9834","-9149","2018-03-27T16:04:53.620035"
"2018-03-27T16:04:53.622443","emg","-31","47","52","-7","-10","32","-4","-31","2018-03-27T16:04:53.621642"
"2018-03-27T16:04:53.622806","emg","32","29","36","14","25","-15","-1","32","2018-03-27T16:04:53.622060"
"2018-03-27T16:04:53.627303","emg","5","-18","-49","-12","-27","-17","-10","-22","2018-03-27T16:04:53.626472"
"2018-03-27T16:04:53.627685","emg","2","-1","1","4","28","-7","-17","-14","2018-03-27T16:04:53.626893"
"2018-03-27T16:04:53.643664","acc","-74","-1538","-987","gyro","-796","-2346","-3178","quat","-2105","8573","10285","-9204","2018-03-27T16:04:53.642604"
"2018-03-27T16:04:53.644913","emg","-36","-39","-30","-11","-26","8","-7","-34","2018-03-27T16:04:53.644170"
"2018-03-27T16:04:53.645279","emg","-36","-9","-10","0","-8","-10","-1","-7","2018-03-27T16:04:53.644534"
"2018-03-27T16:04:53.649734","emg","21","20","8","-13","-18","16","-5","-6","2018-03-27T16:04:53.648914"
"2018-03-27T16:04:53.650152","emg","5","-9","-11","-8","4","40","10","19","2018-03-27T16:04:53.649328"
"2018-03-27T16:04:53.666300","acc","-100","-1652","-722","gyro","10","-2050","-2665","quat","-2153","8058","10580","-9323","2018-03-27T16:04:53.665141"
"2018-03-27T16:04:53.667768","emg","-7","5","-2","4","-15","-57","-13","-12","2018-03-27T16:04:53.666830"
"2018-03-27T16:04:53.668093","emg","-25","-11","-7","-3","20","42","-4","-26","2018-03-27T16:04:53.667309"
"2018-03-27T16:04:53.672700","emg","-10","6","10","-1","-11","-9","1","-1","2018-03-27T16:04:53.671640"
"2018-03-27T16:04:53.673016","emg","-19","-12","-10","1","-3","6","-1","-3","2018-03-27T16:04:53.672183"
"2018-03-27T16:04:53.681061","acc","906","-3262","17","gyro","-3069","-1275","-1171","quat","-1899","7828","11023","-9057","2018-03-27T16:04:53.680070"
"2018-03-27T16:04:53.682189","emg","35","36","15","11","18","10","2","28","2018-03-27T16:04:53.681364"
"2018-03-27T16:04:53.682555","emg","7","1","3","-1","0","2","7","2","2018-03-27T16:04:53.681703"
"2018-03-27T16:04:53.687403","emg","-17","-17","-15","0","16","18","-2","-9","2018-03-27T16:04:53.686558"
"2018-03-27T16:04:53.687714","emg","8","21","9","5","-5","0","-10","2","2018-03-27T16:04:53.686974"
"2018-03-27T16:04:53.704074","acc","339","-2073","-305","gyro","-662","637","1094","quat","-1909","7972","11001","-8956","2018-03-27T16:04:53.703105"
"2018-03-27T16:04:53.705086","emg","2","-4","-9","-1","11","19","3","-16","2018-03-27T16:04:53.704375"
"2018-03-27T16:04:53.705392","emg","-10","-21","-8","-11","-22","-18","-3","-2","2018-03-27T16:04:53.704700"
"2018-03-27T16:04:53.709882","emg","-20","-3","-13","-15","-4","12","-5","-13","2018-03-27T16:04:53.709034"
"2018-03-27T16:04:53.710237","emg","1","1","10","12","9","-56","-31","-7","2018-03-27T16:04:53.709449"
"2018-03-27T16:04:53.726129","acc","-453","-2603","-1412","gyro","1441","984","1048","quat","-2094","8147","10785","-9019","2018-03-27T16:04:53.725064"
"2018-03-27T16:04:53.727224","emg","18","6","8","-2","-3","46","50","20","2018-03-27T16:04:53.726436"
"2018-03-27T16:04:53.727580","emg","-20","-19","-21","-17","-25","-8","-24","-10","2018-03-27T16:04:53.726798"
"2018-03-27T16:04:53.732750","emg","1","4","9","4","-14","-27","24","5","2018-03-27T16:04:53.731658"
"2018-03-27T16:04:53.733063","emg","0","2","7","8","28","8","-6","0","2018-03-27T16:04:53.732258"
"2018-03-27T16:04:53.740861","acc","-1177","-1872","-1462","gyro","1032","460","717","quat","-2135","8285","10625","-9074","2018-03-27T16:04:53.739894"
"2018-03-27T16:04:53.741902","emg","-5","-12","-13","-12","-8","-13","-17","-9","2018-03-27T16:04:53.741173"
"2018-03-27T16:04:53.742281","emg","3","11","9","18","20","6","8","4","2018-03-27T16:04:53.741514"
"2018-03-27T16:04:53.748064","emg","-10","-7","-8","-12","-15","-1","-10","-9","2018-03-27T16:04:53.746965"
"2018-03-27T16:04:53.748385","emg","6","-1","4","1","-4","-27","2","3","2018-03-27T16:04:53.747580"
"2018-03-27T16:04:53.763973","acc","-527","-1413","-853","gyro","895","416","773","quat","-2192","8399","10473","-9132","2018-03-27T16:04:53.762838"
"2018-03-27T16:04:53.765027","emg","-5","-2","-10","-7","-23","-27","-6","-11","2018-03-27T16:04:53.764328"
"2018-03-27T16:04:53.765292","emg","-4","-4","1","8","32","41","6","-4","2018-03-27T16:04:53.764700"
"2018-03-27T16:04:53.769875","emg","3","4","7","2","-8","-2","-5","-2","2018-03-27T16:04:53.768947"
"2018-03-27T16:04:53.770194","emg","-5","-13","-18","-5","16","-11","4","-2","2018-03-27T16:04:53.769420"
"2018-03-27T16:04:53.786155","acc","-194","-1891","-938","gyro","636","773","763","quat","-2306","8530","10354","-9118","2018-03-27T16:04:53.785100"
"2018-03-27T16:04:53.787318","emg","3","14","21","22","-3","4","-7","0","2018-03-27T16:04:53.786537"
"2018-03-27T16:04:53.787625","emg","-18","-3","2","-11","-13","-5","-5","-18","2018-03-27T16:04:53.786888"
"2018-03-27T16:04:53.792713","emg","20","5","-18","-15","-11","-5","11","24","2018-03-27T16:04:53.791664"
"2018-03-27T16:04:53.793026","emg","23","10","9","2","-8","9","3","6","2018-03-27T16:04:53.792201"
"2018-03-27T16:04:53.801166","acc","-313","-2194","-1031","gyro","445","917","1053","quat","-2394","8708","10223","-9076","2018-03-27T16:04:53.800168"
"2018-03-27T16:04:53.802246","emg","-39","-22","-34","-16","-23","1","-10","-32","2018-03-27T16:04:53.801474"
"2018-03-27T16:04:53.802557","emg","12","5","8","13","18","2","-4","10","2018-03-27T16:04:53.801814"
"2018-03-27T16:04:53.807379","emg","-12","-10","-3","3","16","5","1","-18","2018-03-27T16:04:53.806517"
"2018-03-27T16:04:53.807692","emg","0","13","6","-7","-18","-33","-1","3","2018-03-27T16:04:53.806928"
"2018-03-27T16:04:53.823532","acc","-406","-2341","-1106","gyro","539","1065","1482","quat","-2464","8943","10035","-9038","2018-03-27T16:04:53.822535"
"2018-03-27T16:04:53.824721","emg","3","6","9","6","8","8","1","0","2018-03-27T16:04:53.823930"
"2018-03-27T16:04:53.825075","emg","14","-13","-16","-10","-5","-17","-4","15","2018-03-27T16:04:53.824294"
"2018-03-27T16:04:53.830718","emg","-18","-3","3","10","-7","-33","-16","-21","2018-03-27T16:04:53.829571"
"2018-03-27T16:04:53.831035","emg","1","-5","-4","-5","6","28","-1","1","2018-03-27T16:04:53.830171"
"2018-03-27T16:04:53.846932","acc","-394","-2183","-1141","gyro","714","1209","1722","quat","-2507","9226","9771","-9031","2018-03-27T16:04:53.845715"
"2018-03-27T16:04:53.848224","emg","13","-6","-3","0","-2","-5","-6","-7","2018-03-27T16:04:53.847301"
"2018-03-27T16:04:53.848562","emg","9","11","-2","0","11","6","8","22","2018-03-27T16:04:53.847708"
"2018-03-27T16:04:53.852837","emg","44","27","8","-1","-6","10","-4","13","2018-03-27T16:04:53.851724"
"2018-03-27T16:04:53.853158","emg","2","-36","-15","2","11","10","16","5","2018-03-27T16:04:53.852344"
"2018-03-27T16:04:53.861188","acc","-399","-1971","-1163","gyro","694","1428","2006","quat","-2540","9556","9468","-9001","2018-03-27T16:04:53.860086"
"2018-03-27T16:04:53.862342","emg","-1","3","3","3","25","12","-3","-8","2018-03-27T16:04:53.861536"
"2018-03-27T16:04:53.862646","emg","-5","3","1","0","-12","-8","-7","4","2018-03-27T16:04:53.861940"
"2018-03-27T16:04:53.867588","emg","-6","16","5","0","10","56","14","-6","2018-03-27T16:04:53.866600"
"2018-03-27T16:04:53.867904","emg","3","9","2","-22","-57","-50","-12","-3","2018-03-27T16:04:53.867106"
"2018-03-27T16:04:53.884210","acc","-577","-1913","-1283","gyro","844","1726","2135","quat","-2602","9918","9120","-8951","2018-03-27T16:04:53.882886"
"2018-03-27T16:04:53.886473","emg","-17","-18","-18","9","30","-20","-17","-18","2018-03-27T16:04:53.885287"
"2018-03-27T16:04:53.886836","emg","-17","-7","-8","-3","1","16","20","-11","2018-03-27T16:04:53.885893"
"2018-03-27T16:04:53.889960","emg","-14","-6","20","17","26","-15","-3","10","2018-03-27T16:04:53.888986"
"2018-03-27T16:04:53.890355","emg","-16","15","11","-4","-8","10","-9","-4","2018-03-27T16:04:53.889484"
"2018-03-27T16:04:53.906551","acc","-671","-1962","-1302","gyro","1200","1871","2132","quat","-2715","10274","8724","-8911","2018-03-27T16:04:53.905327"
"2018-03-27T16:04:53.907932","emg","-10","-6","14","-9","-13","-22","6","6","2018-03-27T16:04:53.907126"
"2018-03-27T16:04:53.908296","emg","-8","21","-19","-6","-9","-12","-5","-6","2018-03-27T16:04:53.907553"
"2018-03-27T16:04:53.912384","emg","-29","-92","-52","-9","-3","-26","-6","-12","2018-03-27T16:04:53.911566"
"2018-03-27T16:04:53.912756","emg","-18","9","13","9","5","21","2","-9","2018-03-27T16:04:53.911969"
"2018-03-27T16:04:53.920640","acc","-760","-1811","-1357","gyro","1602","1975","2074","quat","-2883","10612","8281","-8884","2018-03-27T16:04:53.919815"
"2018-03-27T16:04:53.921754","emg","7","5","-3","-6","-5","-17","5","19","2018-03-27T16:04:53.921124"
"2018-03-27T16:04:53.922109","emg","-1","-3","14","8","2","12","6","11","2018-03-27T16:04:53.921430"
"2018-03-27T16:04:53.927291","emg","-14","20","15","-4","10","14","-12","-24","2018-03-27T16:04:53.926448"
"2018-03-27T16:04:53.927633","emg","17","-12","-18","-4","5","-7","-8","4","2018-03-27T16:04:53.926897"
"2018-03-27T16:04:53.944222","acc","-788","-1359","-1332","gyro","1912","2146","1978","quat","-3102","10938","7801","-8850","2018-03-27T16:04:53.943098"
"2018-03-27T16:04:53.945382","emg","36","7","13","4","8","30","41","50","2018-03-27T16:04:53.944632"
"2018-03-27T16:04:53.945689","emg","4","-5","1","-10","-16","19","-11","-15","2018-03-27T16:04:53.944997"
"2018-03-27T16:04:53.950288","emg","-18","1","8","10","-14","-80","6","10","2018-03-27T16:04:53.949229"
"2018-03-27T16:04:53.950603","emg","10","1","-1","-9","1","29","17","-1","2018-03-27T16:04:53.949802"
"2018-03-27T16:04:53.966088","acc","-907","-1159","-1473","gyro","2055","2325","1694","quat","-3372","11239","7322","-8782","2018-03-27T16:04:53.965104"
"2018-03-27T16:04:53.967272","emg","-39","2","-1","3","-3","-9","-32","-46","2018-03-27T16:04:53.966531"
"2018-03-27T16:04:53.967585","emg","1","-10","-6","-14","-36","-32","-17","-10","2018-03-27T16:04:53.966891"
"2018-03-27T16:04:53.972316","emg","30","13","3","10","56","78","30","52","2018-03-27T16:04:53.971460"
"2018-03-27T16:04:53.972700","emg","7","3","2","-1","-39","-74","-19","-11","2018-03-27T16:04:53.971918"
"2018-03-27T16:04:53.981215","acc","-1090","-1038","-1576","gyro","1764","2311","1322","quat","-3631","11508","6905","-8667","2018-03-27T16:04:53.980141"
"2018-03-27T16:04:53.982342","emg","22","0","-5","-8","-11","12","-9","14","2018-03-27T16:04:53.981532"
"2018-03-27T16:04:53.982650","emg","-35","-21","-15","-10","1","5","33","-8","2018-03-27T16:04:53.981929"
"2018-03-27T16:04:53.988212","emg","10","6","6","-1","-10","7","-19","9","2018-03-27T16:04:53.987102"
"2018-03-27T16:04:53.988538","emg","-13","3","3","-4","-27","-23","15","5","2018-03-27T16:04:53.987704"
"2018-03-27T16:04:54.003643","acc","-1274","-964","-1510","gyro","1576","2242","879","quat","-3898","11732","6554","-8523","2018-03-27T16:04:54.002524"
"2018-03-27T16:04:54.004993","emg","-20","-11","-7","-3","23","9","-28","-29","2018-03-27T16:04:54.004172"
"2018-03-27T16:04:54.005350","emg","1","-2","5","4","-5","-31","-43","-34","2018-03-27T16:04:54.004597"
"2018-03-27T16:04:54.009882","emg","20","12","-1","-6","-3","32","14","-3","2018-03-27T16:04:54.008995"
"2018-03-27T16:04:54.010295","emg","23","6","8","10","24","12","-12","19","2018-03-27T16:04:54.009467"
"2018-03-27T16:04:54.018104","acc","-1371","-914","-1391","gyro","1563","2182","428","quat","-4195","11907","6256","-8362","2018-03-27T16:04:54.017097"
"2018-03-27T16:04:54.025146","emg","-58","-11","3","6","-10","20","91","31","2018-03-27T16:04:54.024154"
"2018-03-27T16:04:54.025460","emg","90","32","11","11","15","16","-11","47","2018-03-27T16:04:54.024675"
"2018-03-27T16:04:54.032762","emg","13","9","3","-2","-14","-16","26","40","2018-03-27T16:04:54.031703"
"2018-03-27T16:04:54.033076","emg","-67","-25","-16","-13","-5","-6","-46","-76","2018-03-27T16:04:54.032269"
"2018-03-27T16:04:54.041134","acc","-1476","-871","-1460","gyro","1540","2161","-5","quat","-4521","12043","6011","-8175","2018-03-27T16:04:54.040136"
"2018-03-27T16:04:54.042166","emg","32","6","-1","-11","-22","-28","-78","-15","2018-03-27T16:04:54.041451"
"2018-03-27T16:04:54.042480","emg","-14","-1","3","12","28","12","78","10","2018-03-27T16:04:54.041782"
"2018-03-27T16:04:54.047377","emg","-9","-1","1","-15","-35","4","21","3","2018-03-27T16:04:54.046506"
"2018-03-27T16:04:54.047688","emg","4","-4","-6","24","83","60","1","13","2018-03-27T16:04:54.046991"
"2018-03-27T16:04:54.063562","acc","-1516","-848","-1353","gyro","1195","2017","-392","quat","-4822","12148","5849","-7962","2018-03-27T16:04:54.062558"
"2018-03-27T16:04:54.064786","emg","-2","-2","-4","-12","-57","-80","18","-6","2018-03-27T16:04:54.063979"
"2018-03-27T16:04:54.065101","emg","25","6","6","6","42","52","38","39","2018-03-27T16:04:54.064346"
"2018-03-27T16:04:54.070245","emg","-21","-17","-13","-17","-17","-53","-110","-81","2018-03-27T16:04:54.069129"
"2018-03-27T16:04:54.070569","emg","-51","-19","-9","-6","-7","6","-35","-13","2018-03-27T16:04:54.069698"
"2018-03-27T16:04:54.077887","acc","-1560","-693","-1468","gyro","756","1812","-847","quat","-5085","12224","5791","-7720","2018-03-27T16:04:54.076895"
"2018-03-27T16:04:54.085680","emg","17","-1","-13","-19","-25","-14","23","-33","2018-03-27T16:04:54.084657"
"2018-03-27T16:04:54.086029","emg","-48","-19","-12","-17","-16","-31","-53","-51","2018-03-27T16:04:54.085170"
"2018-03-27T16:04:54.092739","emg","26","1","3","2","15","55","54","30","2018-03-27T16:04:54.091683"
"2018-03-27T16:04:54.093053","emg","52","32","5","12","-8","-26","41","71","2018-03-27T16:04:54.092219"
"2018-03-27T16:04:54.101039","acc","-1656","-806","-1216","gyro","-141","1411","-1313","quat","-5170","12316","5861","-7461","2018-03-27T16:04:54.100035"
"2018-03-27T16:04:54.102162","emg","37","-9","3","13","19","36","80","95","2018-03-27T16:04:54.101354"
"2018-03-27T16:04:54.102482","emg","-101","-33","-13","-25","-38","-57","-103","-106","2018-03-27T16:04:54.101694"
"2018-03-27T16:04:54.107842","emg","35","20","-1","4","14","19","-4","38","2018-03-27T16:04:54.106783"
"2018-03-27T16:04:54.108245","emg","-48","-22","-2","-9","-31","7","3","-60","2018-03-27T16:04:54.107348"
"2018-03-27T16:04:54.123882","acc","-1480","-761","-918","gyro","-631","1364","-1622","quat","-5284","12364","6041","-7151","2018-03-27T16:04:54.122876"
"2018-03-27T16:04:54.125116","emg","15","8","-2","0","16","-5","30","35","2018-03-27T16:04:54.124221"
"2018-03-27T16:04:54.125499","emg","-65","-24","10","21","18","21","39","38","2018-03-27T16:04:54.124617"
"2018-03-27T16:04:54.130531","emg","35","3","10","2","-2","-34","-105","-77","2018-03-27T16:04:54.129495"
"2018-03-27T16:04:54.130906","emg","54","47","6","6","0","1","27","49","2018-03-27T16:04:54.130069"
"2018-03-27T16:04:54.138084","acc","-1291","-636","-895","gyro","-1389","1264","-1925","quat","-5310","12419","6325","-6782","2018-03-27T16:04:54.136853"
"2018-03-27T16:04:54.145302","emg","-37","-24","0","-5","-6","11","21","-34","2018-03-27T16:04:54.144209"
"2018-03-27T16:04:54.145654","emg","-21","-26","-22","-13","-22","-17","-63","-25","2018-03-27T16:04:54.144749"
"2018-03-27T16:04:54.152713","emg","89","56","28","41","68","66","127","111","2018-03-27T16:04:54.151664"
"2018-03-27T16:04:54.153032","emg","4","5","0","-8","-12","-19","-27","21","2018-03-27T16:04:54.152223"
"2018-03-27T16:04:54.160913","acc","-1155","-755","-1062","gyro","-2561","1148","-2369","quat","-5196","12487","6757","-6312","2018-03-27T16:04:54.159939"
"2018-03-27T16:04:54.162030","emg","0","31","17","6","16","27","-65","-39","2018-03-27T16:04:54.161227"
"2018-03-27T16:04:54.162343","emg","-52","-59","-35","-12","-22","-80","-92","-45","2018-03-27T16:04:54.161564"
"2018-03-27T16:04:54.167338","emg","22","32","11","7","-4","22","81","44","2018-03-27T16:04:54.166471"
"2018-03-27T16:04:54.167649","emg","-35","-30","23","-19","-17","-17","-29","-46","2018-03-27T16:04:54.166885"
"2018-03-27T16:04:54.183845","acc","-1435","-1977","-1488","gyro","-3353","779","-2419","quat","-4948","12542","7258","-5827","2018-03-27T16:04:54.182847"
"2018-03-27T16:04:54.184951","emg","-15","-21","-10","7","20","-25","-85","-5","2018-03-27T16:04:54.184145"
"2018-03-27T16:04:54.185256","emg","71","58","33","10","0","-5","124","46","2018-03-27T16:04:54.184523"
"2018-03-27T16:04:54.190828","emg","-108","-19","-1","-5","-1","17","-28","-53","2018-03-27T16:04:54.189526"
"2018-03-27T16:04:54.191153","emg","60","27","16","-5","-14","29","-49","-27","2018-03-27T16:04:54.190249"
"2018-03-27T16:04:54.198828","acc","-1242","-2600","-478","gyro","-3575","532","-1235","quat","-4590","12650","7608","-5428","2018-03-27T16:04:54.197779"
"2018-03-27T16:04:54.200058","emg","-7","-24","-7","2","23","65","3","34","2018-03-27T16:04:54.199202"
"2018-03-27T16:04:54.200434","emg","34","76","71","16","5","-14","35","36","2018-03-27T16:04:54.199576"
"2018-03-27T16:04:54.212643","emg","-47","-107","-27","-35","-31","-27","-78","-41","2018-03-27T16:04:54.211623"
"2018-03-27T16:04:54.212956","emg","38","7","-21","0","1","19","116","87","2018-03-27T16:04:54.212128"
"2018-03-27T16:04:54.221160","acc","-1160","-2884","-646","gyro","-1766","819","-100","quat","-4438","12763","7674","-5190","2018-03-27T16:04:54.220099"
"2018-03-27T16:04:54.222306","emg","8","8","21","6","5","-31","-60","-59","2018-03-27T16:04:54.221504"
"2018-03-27T16:04:54.222615","emg","27","-17","-7","5","1","6","15","-12","2018-03-27T16:04:54.221900"
"2018-03-27T16:04:54.235484","emg","-18","2","-15","3","0","-12","12","-8","2018-03-27T16:04:54.234418"
"2018-03-27T16:04:54.235800","emg","-44","-11","0","-3","2","-21","-56","-26","2018-03-27T16:04:54.234975"
"2018-03-27T16:04:54.243530","acc","-1104","-2112","-1151","gyro","-501","588","465","quat","-4406","12843","7582","-5157","2018-03-27T16:04:54.242527"
"2018-03-27T16:04:54.244588","emg","39","33","8","-3","-8","-5","18","-62","2018-03-27T16:04:54.243819"
"2018-03-27T16:04:54.244899","emg","14","16","13","14","11","22","91","35","2018-03-27T16:04:54.244163"
"2018-03-27T16:04:54.250583","emg","-30","-16","-5","-11","-21","-18","-36","11","2018-03-27T16:04:54.249446"
"2018-03-27T16:04:54.250961","emg","-3","-26","-26","-4","5","-3","9","36","2018-03-27T16:04:54.250072"
"2018-03-27T16:04:54.258098","acc","-919","-1812","-976","gyro","-336","479","470","quat","-4389","12909","7491","-5140","2018-03-27T16:04:54.257051"
"2018-03-27T16:04:54.265309","emg","2","16","13","4","-2","-9","-19","59","2018-03-27T16:04:54.264264"
"2018-03-27T16:04:54.265629","emg","8","-8","-22","-22","-21","-8","-52","-11","2018-03-27T16:04:54.264801"
"2018-03-27T16:04:54.272820","emg","-24","-15","-10","-1","1","0","-36","-41","2018-03-27T16:04:54.271813"
"2018-03-27T16:04:54.273130","emg","-6","18","15","9","7","7","21","-38","2018-03-27T16:04:54.272329"
"2018-03-27T16:04:54.281064","acc","-897","-1830","-1194","gyro","-131","293","477","quat","-4378","12959","7400","-5154","2018-03-27T16:04:54.280100"
"2018-03-27T16:04:54.282262","emg","1","-60","-22","3","9","-5","-80","-7","2018-03-27T16:04:54.281426"
"2018-03-27T16:04:54.282633","emg","15","10","3","5","8","32","42","47","2018-03-27T16:04:54.281766"
"2018-03-27T16:04:54.295515","emg","-28","20","-5","-8","-13","-9","-19","-47","2018-03-27T16:04:54.294475"
"2018-03-27T16:04:54.295830","emg","20","10","21","-2","-1","-8","-25","-34","2018-03-27T16:04:54.295027"
"2018-03-27T16:04:54.304033","acc","-850","-1650","-1240","gyro","58","153","377","quat","-4378","12990","7322","-5187","2018-03-27T16:04:54.303052"
"2018-03-27T16:04:54.305117","emg","-9","12","12","0","-6","1","18","-7","2018-03-27T16:04:54.304350"
"2018-03-27T16:04:54.305428","emg","-30","-25","-22","-8","3","20","-22","-36","2018-03-27T16:04:54.304689"
"2018-03-27T16:04:54.309780","emg","28","9","17","17","14","-7","39","50","2018-03-27T16:04:54.308920"
"2018-03-27T16:04:54.310131","emg","-34","-8","-17","-15","-12","-9","-26","-49","2018-03-27T16:04:54.309341"
"2018-03-27T16:04:54.317696","acc","-888","-1603","-1294","gyro","87","-22","390","quat","-4361","13013","7250","-5244","2018-03-27T16:04:54.316679"
"2018-03-27T16:04:54.325151","emg","-19","9","5","-9","-18","0","-5","6","2018-03-27T16:04:54.324127"
"2018-03-27T16:04:54.325528","emg","55","3","0","19","29","14","15","57","2018-03-27T16:04:54.324690"
"2018-03-27T16:04:54.332373","emg","-17","4","-6","-21","-34","-42","-29","-41","2018-03-27T16:04:54.331479"
"2018-03-27T16:04:54.332745","emg","-1","-28","-10","7","11","31","69","24","2018-03-27T16:04:54.331936"
"2018-03-27T16:04:54.341240","acc","-868","-1511","-1343","gyro","151","-139","411","quat","-4337","13032","7179","-5315","2018-03-27T16:04:54.340182"
"2018-03-27T16:04:54.342547","emg","-10","27","-2","-3","-2","-1","5","-9","2018-03-27T16:04:54.341766"
"2018-03-27T16:04:54.342914","emg","-22","-11","-13","-11","-18","-33","-35","-24","2018-03-27T16:04:54.342172"
"2018-03-27T16:04:54.355163","emg","4","-1","-3","-5","-8","1","-35","-27","2018-03-27T16:04:54.354142"
"2018-03-27T16:04:54.355523","emg","6","0","1","13","33","23","11","30","2018-03-27T16:04:54.354668"
"2018-03-27T16:04:54.363957","acc","-820","-1532","-1280","gyro","91","-245","337","quat","-4307","13038","7128","-5392","2018-03-27T16:04:54.362886"
"2018-03-27T16:04:54.365213","emg","1","-1","-5","-4","-4","4","31","13","2018-03-27T16:04:54.364475"
"2018-03-27T16:04:54.365569","emg","8","28","3","1","12","28","-40","-25","2018-03-27T16:04:54.364832"
"2018-03-27T16:04:54.370099","emg","7","-4","1","6","-20","-41","24","15","2018-03-27T16:04:54.369028"
"2018-03-27T16:04:54.370459","emg","-18","-7","-8","-9","-1","-17","-11","-7","2018-03-27T16:04:54.369558"
"2018-03-27T16:04:54.377826","acc","-819","-1561","-1208","gyro","125","-301","264","quat","-4288","13030","7088","-5478","2018-03-27T16:04:54.376748"
"2018-03-27T16:04:54.385378","emg","20","14","0","2","-12","12","27","3","2018-03-27T16:04:54.384244"
"2018-03-27T16:04:54.385794","emg","12","5","-3","0","0","1","-24","-11","2018-03-27T16:04:54.384908"
"2018-03-27T16:04:54.392519","emg","-4","-6","-8","-4","1","-1","8","4","2018-03-27T16:04:54.391510"
"2018-03-27T16:04:54.392996","emg","8","0","1","10","34","37","25","24","2018-03-27T16:04:54.391991"
"2018-03-27T16:04:54.400874","acc","-885","-1628","-1099","gyro","294","-305","267","quat","-4296","13010","7035","-5586","2018-03-27T16:04:54.399911"
"2018-03-27T16:04:54.402008","emg","-4","-5","-12","-6","-15","-50","-26","-12","2018-03-27T16:04:54.401211"
"2018-03-27T16:04:54.402368","emg","4","-7","-2","-2","1","5","2","7","2018-03-27T16:04:54.401552"
"2018-03-27T16:04:54.415352","emg","-4","2","6","4","13","10","-1","4","2018-03-27T16:04:54.414328"
"2018-03-27T16:04:54.415709","emg","-14","-5","0","2","-7","-28","-12","-21","2018-03-27T16:04:54.414849"
"2018-03-27T16:04:54.423152","acc","-1070","-1725","-1072","gyro","664","-330","457","quat","-4341","12984","6928","-5746","2018-03-27T16:04:54.422343"
"2018-03-27T16:04:54.424253","emg","10","-2","-8","-5","-8","41","23","18","2018-03-27T16:04:54.423523"
"2018-03-27T16:04:54.424562","emg","-7","-7","-4","-8","-4","-13","2","0","2018-03-27T16:04:54.423866"
"2018-03-27T16:04:54.430288","emg","-3","2","-1","0","13","7","9","0","2018-03-27T16:04:54.429159"
"2018-03-27T16:04:54.430614","emg","1","2","-3","1","-4","-13","-11","-7","2018-03-27T16:04:54.429746"
"2018-03-27T16:04:54.437986","acc","-1173","-1557","-1074","gyro","972","-399","789","quat","-4386","12968","6753","-5951","2018-03-27T16:04:54.437002"
"2018-03-27T16:04:54.445269","emg","-5","-7","-4","-4","-12","3","8","-7","2018-03-27T16:04:54.444232"
"2018-03-27T16:04:54.445583","emg","4","-4","-1","0","-16","-39","-12","-1","2018-03-27T16:04:54.444772"
"2018-03-27T16:04:54.452680","emg","3","0","-2","0","19","40","17","3","2018-03-27T16:04:54.451633"
"2018-03-27T16:04:54.453001","emg","3","-1","1","-1","-8","2","-12","1","2018-03-27T16:04:54.452173"
"2018-03-27T16:04:54.461025","acc","-1263","-1429","-1100","gyro","1101","-537","1075","quat","-4408","12961","6532","-6192","2018-03-27T16:04:54.460055"
"2018-03-27T16:04:54.462025","emg","4","1","0","-5","-17","-30","-7","8","2018-03-27T16:04:54.461339"
"2018-03-27T16:04:54.462341","emg","0","-5","1","-4","-13","7","7","2","2018-03-27T16:04:54.461663"
"2018-03-27T16:04:54.475038","emg","-2","-1","-1","8","17","-6","-10","-9","2018-03-27T16:04:54.473895"
"2018-03-27T16:04:54.475366","emg","-9","-5","-5","-12","-10","0","-2","-8","2018-03-27T16:04:54.474520"
"2018-03-27T16:04:54.483808","acc","-1268","-1307","-1179","gyro","1126","-681","1334","quat","-4394","12963","6281","-6452","2018-03-27T16:04:54.482825"
"2018-03-27T16:04:54.484858","emg","4","1","-3","1","23","14","9","5","2018-03-27T16:04:54.484126"
"2018-03-27T16:04:54.485169","emg","-2","-2","-3","-4","-15","-12","-9","-8","2018-03-27T16:04:54.484466"
"2018-03-27T16:04:54.490223","emg","1","0","3","-1","-9","-8","-9","0","2018-03-27T16:04:54.489206"
"2018-03-27T16:04:54.490600","emg","2","0","0","5","6","12","5","7","2018-03-27T16:04:54.489724"
"2018-03-27T16:04:54.497675","acc","-1154","-1199","-1190","gyro","836","-787","1469","quat","-4323","12979","6039","-6694","2018-03-27T16:04:54.496789"
"2018-03-27T16:04:54.505335","emg","1","-2","-3","-1","-3","-5","1","-4","2018-03-27T16:04:54.504332"
"2018-03-27T16:04:54.505705","emg","-3","-5","-2","0","0","-13","-16","-6","2018-03-27T16:04:54.504864"
"2018-03-27T16:04:54.512573","emg","7","5","5","5","14","51","51","13","2018-03-27T16:04:54.511578"
"2018-03-27T16:04:54.512935","emg","-3","-2","-3","-3","-15","-34","-21","-5","2018-03-27T16:04:54.512104"
"2018-03-27T16:04:54.520696","acc","-1079","-1187","-1056","gyro","419","-793","1533","quat","-4198","13008","5820","-6908","2018-03-27T16:04:54.519784"
"2018-03-27T16:04:54.522123","emg","-4","-2","-5","-2","-1","-1","-10","-9","2018-03-27T16:04:54.521309"
"2018-03-27T16:04:54.522480","emg","4","0","2","5","16","9","10","6","2018-03-27T16:04:54.521679"
"2018-03-27T16:04:54.535405","emg","-3","-4","-3","-3","-12","-19","-8","-3","2018-03-27T16:04:54.534403"
"2018-03-27T16:04:54.535761","emg","-1","0","-3","-3","-10","-4","-6","-4","2018-03-27T16:04:54.534915"
"2018-03-27T16:04:54.543570","acc","-1041","-1327","-974","gyro","332","-632","1698","quat","-4075","13051","5581","-7095","2018-03-27T16:04:54.542557"
"2018-03-27T16:04:54.544823","emg","-1","-2","-2","-1","0","-7","-7","-3","2018-03-27T16:04:54.544084"
"2018-03-27T16:04:54.545180","emg","-2","-3","-1","2","5","10","5","-1","2018-03-27T16:04:54.544448"
"2018-03-27T16:04:54.550625","emg","1","2","0","0","-13","-23","-18","-5","2018-03-27T16:04:54.549456"
"2018-03-27T16:04:54.550996","emg","3","-3","-3","2","-4","6","-1","1","2018-03-27T16:04:54.550151"
"2018-03-27T16:04:54.557607","acc","-1002","-1308","-973","gyro","436","-370","1861","quat","-3971","13114","5298","-7254","2018-03-27T16:04:54.556671"
"2018-03-27T16:04:54.565235","emg","0","1","-1","4","5","-2","0","-1","2018-03-27T16:04:54.564229"
"2018-03-27T16:04:54.565606","emg","1","-2","0","3","4","4","3","-4","2018-03-27T16:04:54.564765"
"2018-03-27T16:04:54.572675","emg","-3","-3","-3","1","-8","-9","-11","-7","2018-03-27T16:04:54.571719"
"2018-03-27T16:04:54.572984","emg","6","3","3","6","4","22","17","12","2018-03-27T16:04:54.572216"
"2018-03-27T16:04:54.580712","acc","-946","-1063","-1049","gyro","490","-75","1875","quat","-3885","13195","4994","-7369","2018-03-27T16:04:54.579839"
"2018-03-27T16:04:54.581852","emg","-5","-2","-1","-3","0","-21","-13","-6","2018-03-27T16:04:54.581085"
"2018-03-27T16:04:54.582203","emg","-3","-3","-4","-6","-4","-1","5","-3","2018-03-27T16:04:54.581478"
"2018-03-27T16:04:54.595421","emg","0","-1","-3","-3","-3","-9","-20","-4","2018-03-27T16:04:54.594354"
"2018-03-27T16:04:54.595737","emg","-3","-1","-3","1","-6","-14","-8","-4","2018-03-27T16:04:54.594974"
"2018-03-27T16:04:54.603905","acc","-941","-860","-1217","gyro","449","222","1674","quat","-3821","13288","4708","-7423","2018-03-27T16:04:54.602874"
"2018-03-27T16:04:54.605004","emg","1","-1","-2","2","-1","8","3","1","2018-03-27T16:04:54.604237"
"2018-03-27T16:04:54.605309","emg","-2","-2","-1","4","0","-14","-13","-1","2018-03-27T16:04:54.604630"
"2018-03-27T16:04:54.609595","emg","3","4","2","3","2","12","27","11","2018-03-27T16:04:54.608884"
"2018-03-27T16:04:54.609860","emg","-2","-3","-1","1","-4","-10","-16","-4","2018-03-27T16:04:54.609274"
"2018-03-27T16:04:54.618009","acc","-1032","-892","-1344","gyro","233","354","1377","quat","-3733","13402","4477","-7406","2018-03-27T16:04:54.616941"
"2018-03-27T16:04:54.624816","emg","-2","-4","-1","0","-1","11","31","10","2018-03-27T16:04:54.623974"
"2018-03-27T16:04:54.625120","emg","-3","-4","-6","-10","-1","-13","-12","0","2018-03-27T16:04:54.624431"
"2018-03-27T16:04:54.632809","emg","-7","-5","-1","-10","-6","-15","-15","-4","2018-03-27T16:04:54.631631"
"2018-03-27T16:04:54.633088","emg","-3","0","7","4","2","-1","8","3","2018-03-27T16:04:54.632342"
"2018-03-27T16:04:54.640975","acc","-1076","-1002","-1321","gyro","-75","380","1159","quat","-3629","13511","4303","-7362","2018-03-27T16:04:54.639993"
"2018-03-27T16:04:54.641940","emg","-6","-4","-3","-9","-5","-29","-19","-8","2018-03-27T16:04:54.641285"
"2018-03-27T16:04:54.642295","emg","0","1","7","2","-3","20","13","5","2018-03-27T16:04:54.641614"
"2018-03-27T16:04:54.655229","emg","4","1","1","1","4","12","8","3","2018-03-27T16:04:54.654126"
"2018-03-27T16:04:54.655541","emg","-7","-3","-4","-8","-9","-23","-14","-6","2018-03-27T16:04:54.654776"
"2018-03-27T16:04:54.663902","acc","-1035","-1011","-1254","gyro","-297","564","974","quat","-3524","13627","4166","-7276","2018-03-27T16:04:54.662868"
"2018-03-27T16:04:54.664992","emg","-1","0","1","4","8","16","0","-2","2018-03-27T16:04:54.664228"
"2018-03-27T16:04:54.665292","emg","2","0","0","-2","3","-15","4","0","2018-03-27T16:04:54.664615"
"2018-03-27T16:04:54.670476","emg","-1","2","3","-3","1","15","10","2","2018-03-27T16:04:54.669439"
"2018-03-27T16:04:54.670789","emg","-1","0","4","-11","-1","17","-1","-3","2018-03-27T16:04:54.670066"
"2018-03-27T16:04:54.678359","acc","-949","-924","-1244","gyro","-344","906","725","quat","-3447","13759","4057","-7125","2018-03-27T16:04:54.677252"
"2018-03-27T16:04:54.684977","emg","-3","-3","-9","-6","-2","-7","2","-3","2018-03-27T16:04:54.684043"
"2018-03-27T16:04:54.685294","emg","-2","-2","-3","-7","-2","8","12","5","2018-03-27T16:04:54.684551"
"2018-03-27T16:04:54.692496","emg","-2","1","7","-5","-5","-23","-19","-9","2018-03-27T16:04:54.691558"
"2018-03-27T16:04:54.692771","emg","0","2","4","8","4","18","42","8","2018-03-27T16:04:54.692092"
"2018-03-27T16:04:54.700932","acc","-926","-970","-1394","gyro","-114","1206","398","quat","-3443","13891","3970","-6917","2018-03-27T16:04:54.699977"
"2018-03-27T16:04:54.701895","emg","-3","-1","-2","-5","0","10","-7","-2","2018-03-27T16:04:54.701230"
"2018-03-27T16:04:54.702206","emg","-2","-2","-1","-4","-2","0","-4","-4","2018-03-27T16:04:54.701574"
"2018-03-27T16:04:54.714648","emg","-2","-5","-8","-3","-3","-4","-5","-2","2018-03-27T16:04:54.713860"
"2018-03-27T16:04:54.714912","emg","3","0","-3","-7","-5","-7","-9","-3","2018-03-27T16:04:54.714308"
"2018-03-27T16:04:54.723707","acc","-996","-1273","-1569","gyro","-4","1245","75","quat","-3495","14000","3927","-6693","2018-03-27T16:04:54.722757"
"2018-03-27T16:04:54.724652","emg","6","0","3","0","4","0","5","3","2018-03-27T16:04:54.723997"
"2018-03-27T16:04:54.724917","emg","4","-2","-2","-2","-9","5","6","1","2018-03-27T16:04:54.724336"
"2018-03-27T16:04:54.729663","emg","4","1","1","5","7","0","-5","-2","2018-03-27T16:04:54.728904"
"2018-03-27T16:04:54.729930","emg","3","1","-3","-4","5","1","-3","2","2018-03-27T16:04:54.729304"
"2018-03-27T16:04:54.738059","acc","-913","-1498","-1537","gyro","-389","1083","-71","quat","-3511","14094","3946","-6472","2018-03-27T16:04:54.737030"
"2018-03-27T16:04:54.744650","emg","1","4","-2","-5","-3","10","10","1","2018-03-27T16:04:54.743886"
"2018-03-27T16:04:54.744915","emg","-4","-2","-3","2","4","-5","-18","-7","2018-03-27T16:04:54.744315"
"2018-03-27T16:04:54.752539","emg","1","0","0","-1","-5","-21","-1","-2","2018-03-27T16:04:54.751567"
"2018-03-27T16:04:54.752813","emg","2","-2","-1","3","5","24","16","1","2018-03-27T16:04:54.752135"
"2018-03-27T16:04:54.761036","acc","-687","-1357","-1301","gyro","-837","1234","-254","quat","-3485","14200","4017","-6206","2018-03-27T16:04:54.760003"
"2018-03-27T16:04:54.762319","emg","4","-1","-5","-1","-3","17","0","-2","2018-03-27T16:04:54.761549"
"2018-03-27T16:04:54.762682","emg","12","9","2","4","6","14","2","-2","2018-03-27T16:04:54.761911"
"2018-03-27T16:04:54.774694","emg","6","0","-7","2","-7","-9","-16","-8","2018-03-27T16:04:54.773921"
"2018-03-27T16:04:54.775036","emg","2","-4","-10","2","6","4","-5","-7","2018-03-27T16:04:54.774340"
"2018-03-27T16:04:54.783356","acc","-546","-1162","-1325","gyro","-561","1567","-560","quat","-3524","14304","4099","-5882","2018-03-27T16:04:54.782475"
"2018-03-27T16:04:54.784241","emg","4","-3","-7","2","-4","-9","14","2","2018-03-27T16:04:54.783669"
"2018-03-27T16:04:54.784508","emg","4","1","1","0","5","17","10","5","2018-03-27T16:04:54.783952"
"2018-03-27T16:04:54.790267","emg","0","-2","0","-8","-17","-4","5","0","2018-03-27T16:04:54.789263"
"2018-03-27T16:04:54.790545","emg","-2","-2","-2","-4","-5","-21","-18","-4","2018-03-27T16:04:54.789830"
"2018-03-27T16:04:54.798131","acc","-624","-1526","-1771","gyro","-244","1663","-861","quat","-3621","14380","4189","-5566","2018-03-27T16:04:54.797013"
"2018-03-27T16:04:54.804957","emg","-6","-2","2","15","10","-6","-6","1","2018-03-27T16:04:54.804084"
"2018-03-27T16:04:54.805265","emg","-10","-7","-9","-22","-21","2","-6","-1","2018-03-27T16:04:54.804560"
"2018-03-27T16:04:54.812726","emg","-7","-5","-4","-7","-6","-5","4","4","2018-03-27T16:04:54.811698"
"2018-03-27T16:04:54.812995","emg","-7","-5","0","-2","-2","-9","1","2","2018-03-27T16:04:54.812294"
"2018-03-27T16:04:54.821392","acc","-609","-1921","-1972","gyro","-322","1358","-780","quat","-3726","14434","4305","-5260","2018-03-27T16:04:54.820299"
"2018-03-27T16:04:54.822489","emg","-7","-2","2","-8","-5","-10","-6","-2","2018-03-27T16:04:54.821683"
"2018-03-27T16:04:54.822797","emg","-7","-3","-1","-4","-10","-8","6","3","2018-03-27T16:04:54.822113"
"2018-03-27T16:04:54.834665","emg","-8","-5","2","12","17","1","-14","-2","2018-03-27T16:04:54.833872"
"2018-03-27T16:04:54.834991","emg","-5","-2","-2","2","-5","-8","-6","1","2018-03-27T16:04:54.834337"
"2018-03-27T16:04:54.843360","acc","-360","-1684","-1710","gyro","-890","1147","-765","quat","-3729","14493","4455","-4962","2018-03-27T16:04:54.842372"
"2018-03-27T16:04:54.844423","emg","-2","0","1","4","1","-1","-1","5","2018-03-27T16:04:54.843649"
"2018-03-27T16:04:54.844725","emg","-7","-4","-1","-4","-6","-9","-10","-11","2018-03-27T16:04:54.844045"
"2018-03-27T16:04:54.850421","emg","2","3","2","8","7","9","15","4","2018-03-27T16:04:54.849446"
"2018-03-27T16:04:54.850695","emg","0","0","-4","-13","-8","-9","-11","-5","2018-03-27T16:04:54.850011"
"2018-03-27T16:04:54.857750","acc","-266","-1338","-1479","gyro","-815","1377","-995","quat","-3753","14546","4617","-4629","2018-03-27T16:04:54.856695"
"2018-03-27T16:04:54.865368","emg","3","3","1","-7","-1","16","11","1","2018-03-27T16:04:54.864339"
"2018-03-27T16:04:54.865698","emg","0","1","2","7","2","-21","-20","-6","2018-03-27T16:04:54.864930"
"2018-03-27T16:04:54.872759","emg","2","2","-1","-2","1","23","25","9","2018-03-27T16:04:54.871684"
"2018-03-27T16:04:54.873072","emg","2","-1","-5","11","8","28","5","-3","2018-03-27T16:04:54.872306"
"2018-03-27T16:04:54.881236","acc","-389","-1543","-1617","gyro","262","1573","-1081","quat","-3960","14551","4724","-4325","2018-03-27T16:04:54.880083"
"2018-03-27T16:04:54.882381","emg","2","-1","0","-4","-6","1","15","5","2018-03-27T16:04:54.881572"
"2018-03-27T16:04:54.882687","emg","-2","-2","-2","1","1","-12","-12","-6","2018-03-27T16:04:54.882037"
"2018-03-27T16:04:54.895865","emg","-11","-6","3","0","-2","-15","-16","-9","2018-03-27T16:04:54.894656"
"2018-03-27T16:04:54.896359","emg","-1","-5","-3","2","0","-16","-5","1","2018-03-27T16:04:54.895271"
"2018-03-27T16:04:54.903372","acc","-509","-1815","-1932","gyro","1017","1384","-926","quat","-4261","14515","4772","-4099","2018-03-27T16:04:54.902379"
"2018-03-27T16:04:54.904670","emg","-4","-2","1","-14","-4","-9","-5","1","2018-03-27T16:04:54.903885"
"2018-03-27T16:04:54.905022","emg","-1","-2","-1","5","-1","12","24","4","2018-03-27T16:04:54.904271"
"2018-03-27T16:04:54.909526","emg","3","2","0","0","0","-15","-29","-9","2018-03-27T16:04:54.908822"
"2018-03-27T16:04:54.909849","emg","-1","-3","1","-14","-2","16","31","11","2018-03-27T16:04:54.909183"
"2018-03-27T16:04:54.917253","acc","-579","-1726","-2110","gyro","542","997","-786","quat","-4437","14493","4831","-3918","2018-03-27T16:04:54.916523"
"2018-03-27T16:04:54.925175","emg","6","0","1","3","1","-6","-13","-5","2018-03-27T16:04:54.924203"
"2018-03-27T16:04:54.925655","emg","-9","-3","-3","-7","-2","-5","3","0","2018-03-27T16:04:54.924696"
"2018-03-27T16:04:54.932421","emg","5","10","3","-4","-6","-4","1","2","2018-03-27T16:04:54.931513"
"2018-03-27T16:04:54.932692","emg","0","-1","-2","-4","0","-9","-24","-10","2018-03-27T16:04:54.932035"
"2018-03-27T16:04:54.941216","acc","-539","-1337","-1871","gyro","-48","916","-840","quat","-4499","14495","4922","-3722","2018-03-27T16:04:54.940168"
"2018-03-27T16:04:54.942502","emg","-9","-6","-1","5","3","0","14","2","2018-03-27T16:04:54.941658"
"2018-03-27T16:04:54.942805","emg","8","7","2","-2","9","11","2","5","2018-03-27T16:04:54.942109"
"2018-03-27T16:04:54.955524","emg","3","-2","1","8","-4","3","5","1","2018-03-27T16:04:54.954508"
"2018-03-27T16:04:54.955834","emg","1","2","0","1","-3","-14","-6","0","2018-03-27T16:04:54.955085"
"2018-03-27T16:04:54.964138","acc","-539","-1160","-1656","gyro","-100","1048","-915","quat","-4559","14498","5015","-3508","2018-03-27T16:04:54.963025"
"2018-03-27T16:04:54.965531","emg","-11","-3","0","0","1","-1","-13","-7","2018-03-27T16:04:54.964674"
"2018-03-27T16:04:54.965996","emg","-1","4","-1","6","0","3","7","0","2018-03-27T16:04:54.965138"
"2018-03-27T16:04:54.970056","emg","10","8","-1","-4","5","22","6","6","2018-03-27T16:04:54.969145"
"2018-03-27T16:04:54.970379","emg","-5","-5","-2","-5","-9","-18","-4","-5","2018-03-27T16:04:54.969612"
"2018-03-27T16:04:54.977905","acc","-553","-1287","-1797","gyro","187","1007","-834","quat","-4656","14486","5085","-3324","2018-03-27T16:04:54.977058"
"2018-03-27T16:04:54.985108","emg","7","2","-4","-2","-4","-11","-15","-6","2018-03-27T16:04:54.984194"
"2018-03-27T16:04:54.985433","emg","-12","-16","-2","4","3","-1","-8","-2","2018-03-27T16:04:54.984688"
"2018-03-27T16:04:54.992472","emg","7","1","-5","-8","-3","19","31","9","2018-03-27T16:04:54.991562"
"2018-03-27T16:04:54.992797","emg","-1","7","0","-2","-4","0","-1","2","2018-03-27T16:04:54.992052"
"2018-03-27T16:04:55.001122","acc","-525","-1338","-1947","gyro","-157","778","-627","quat","-4675","14494","5147","-3164","2018-03-27T16:04:54.999999"
"2018-03-27T16:04:55.002650","emg","-7","-4","4","7","3","2","-3","-4","2018-03-27T16:04:55.001654"
"2018-03-27T16:04:55.003036","emg","1","4","0","2","-1","-6","-7","-1","2018-03-27T16:04:55.002139"
"2018-03-27T16:04:55.014785","emg","-3","-4","-2","-1","-3","-12","-11","-3","2018-03-27T16:04:55.013928"
"2018-03-27T16:04:55.015125","emg","-4","-8","-8","-13","-4","-13","-11","-3","2018-03-27T16:04:55.014378"
"2018-03-27T16:04:55.023880","acc","-488","-1169","-1848","gyro","-785","678","-575","quat","-4583","14532","5225","-2989","2018-03-27T16:04:55.022900"
"2018-03-27T16:04:55.025029","emg","-3","-5","-4","-1","0","14","12","0","2018-03-27T16:04:55.024344"
"2018-03-27T16:04:55.025345","emg","6","6","1","1","1","-4","0","2","2018-03-27T16:04:55.024704"
"2018-03-27T16:04:55.029562","emg","-6","2","0","-1","0","-5","-7","-4","2018-03-27T16:04:55.028875"
"2018-03-27T16:04:55.029882","emg","-4","-2","0","6","2","1","-3","-2","2018-03-27T16:04:55.029217"
"2018-03-27T16:04:55.037860","acc","-422","-1067","-1648","gyro","-1134","765","-583","quat","-4448","14584","5311","-2784","2018-03-27T16:04:55.036974"
"2018-03-27T16:04:55.044990","emg","1","1","-2","-3","-1","-8","-7","1","2018-03-27T16:04:55.044048"
"2018-03-27T16:04:55.045395","emg","3","-10","-2","-1","-1","5","6","1","2018-03-27T16:04:55.044546"
"2018-03-27T16:04:55.052136","emg","-7","-8","-6","-6","-3","-5","-11","-5","2018-03-27T16:04:55.051388"
"2018-03-27T16:04:55.052456","emg","3","2","2","2","0","2","2","1","2018-03-27T16:04:55.051787"
"2018-03-27T16:04:55.061254","acc","-431","-1287","-2258","gyro","-1449","931","-566","quat","-4262","14654","5395","-2530","2018-03-27T16:04:55.060071"
"2018-03-27T16:04:55.062742","emg","6","1","3","6","2","-1","-6","-1","2018-03-27T16:04:55.061799"
"2018-03-27T16:04:55.063164","emg","2","0","-1","3","3","7","-2","-1","2018-03-27T16:04:55.062274"
"2018-03-27T16:04:55.075625","emg","-6","-3","-5","-4","-2","-14","-12","-6","2018-03-27T16:04:55.074619"
"2018-03-27T16:04:55.075986","emg","-1","-2","-1","-1","-2","-3","-2","-3","2018-03-27T16:04:55.075133"
"2018-03-27T16:04:55.083508","acc","-1294","-2872","-2490","gyro","1658","457","-62","quat","-4564","14579","5329","-2577","2018-03-27T16:04:55.082484"
"2018-03-27T16:04:55.084823","emg","-1","-1","1","-3","0","-7","-9","1","2018-03-27T16:04:55.084073"
"2018-03-27T16:04:55.085183","emg","-3","1","-1","-4","-2","5","10","2","2018-03-27T16:04:55.084438"
"2018-03-27T16:04:55.090615","emg","-7","-5","-1","-2","-1","-7","-3","-1","2018-03-27T16:04:55.089496"
"2018-03-27T16:04:55.090976","emg","-3","-3","1","2","-1","0","1","-1","2018-03-27T16:04:55.090122"
"2018-03-27T16:04:55.098053","acc","-552","-1901","-2231","gyro","-520","-577","1262","quat","-4424","14655","5164","-2724","2018-03-27T16:04:55.097037"
"2018-03-27T16:04:55.105516","emg","-2","-1","2","-1","0","-1","0","-1","2018-03-27T16:04:55.104509"
"2018-03-27T16:04:55.105833","emg","-3","-1","1","-2","-1","-7","-7","-2","2018-03-27T16:04:55.105037"
"2018-03-27T16:04:55.112721","emg","0","-3","0","-1","-2","-1","5","-1","2018-03-27T16:04:55.111661"
"2018-03-27T16:04:55.113035","emg","5","3","2","5","2","11","2","1","2018-03-27T16:04:55.112210"
"2018-03-27T16:04:55.121189","acc","-57","-711","-1736","gyro","-113","-239","30","quat","-4360","14667","5182","-2726","2018-03-27T16:04:55.120187"
"2018-03-27T16:04:55.122304","emg","1","3","-2","-1","-1","0","-6","-7","2018-03-27T16:04:55.121498"
"2018-03-27T16:04:55.122654","emg","1","0","-2","-1","0","0","-1","-1","2018-03-27T16:04:55.121836"
"2018-03-27T16:04:55.135570","emg","-1","-3","-1","0","-1","1","0","1","2018-03-27T16:04:55.134534"
"2018-03-27T16:04:55.135886","emg","1","0","0","0","0","-3","0","0","2018-03-27T16:04:55.135059"
"2018-03-27T16:04:55.143998","acc","-211","-609","-1300","gyro","88","170","-488","quat","-4373","14649","5249","-2675","2018-03-27T16:04:55.142968"
"2018-03-27T16:04:55.145159","emg","1","2","-2","-1","-3","-5","-3","-2","2018-03-27T16:04:55.144373"
"2018-03-27T16:04:55.145528","emg","0","-1","-1","2","0","3","1","-1","2018-03-27T16:04:55.144746"
"2018-03-27T16:04:55.150621","emg","-1","-2","-3","-2","-2","-3","0","-2","2018-03-27T16:04:55.149547"
"2018-03-27T16:04:55.150983","emg","-4","-1","-1","0","-1","-6","-12","-5","2018-03-27T16:04:55.150119"
"2018-03-27T16:04:55.157958","acc","-380","-1253","-1593","gyro","108","142","-87","quat","-4403","14641","5249","-2669","2018-03-27T16:04:55.156990"
"2018-03-27T16:04:55.165239","emg","3","1","0","-1","0","4","15","5","2018-03-27T16:04:55.164073"
"2018-03-27T16:04:55.165705","emg","-2","-2","1","1","-2","-6","-3","-2","2018-03-27T16:04:55.164742"
"2018-03-27T16:04:55.172685","emg","2","-1","3","2","0","1","6","1","2018-03-27T16:04:55.171602"
"2018-03-27T16:04:55.173059","emg","-3","-2","-4","-1","-1","-8","-6","-2","2018-03-27T16:04:55.172219"
"2018-03-27T16:04:55.180351","acc","-244","-1537","-1983","gyro","100","-121","108","quat","-4417","14637","5236","-2696","2018-03-27T16:04:55.179231"
"2018-03-27T16:04:55.187588","emg","-1","-1","-2","-2","-3","3","4","-2","2018-03-27T16:04:55.186575"
"2018-03-27T16:04:55.187903","emg","-2","-1","-2","-5","-1","-5","-5","-2","2018-03-27T16:04:55.187100"
"2018-03-27T16:04:55.195527","emg","-2","-1","0","0","0","0","0","-1","2018-03-27T16:04:55.194486"
"2018-03-27T16:04:55.195850","emg","2","0","-1","3","2","2","2","0","2018-03-27T16:04:55.195036"
"2018-03-27T16:04:55.203544","acc","-174","-1430","-1958","gyro","68","-233","-49","quat","-4420","14623","5257","-2723","2018-03-27T16:04:55.202516"
"2018-03-27T16:04:55.204772","emg","-2","0","1","-5","-2","-3","-4","0","2018-03-27T16:04:55.203969"
"2018-03-27T16:04:55.205087","emg","-2","0","-1","-2","-3","-3","-3","-3","2018-03-27T16:04:55.204327"
"2018-03-27T16:04:55.218794","emg","-2","-1","-2","-2","-1","1","-6","-2","2018-03-27T16:04:55.217700"
"2018-03-27T16:04:55.219111","emg","-1","-1","0","-1","-1","3","4","1","2018-03-27T16:04:55.218291"
"2018-03-27T16:04:55.220220","acc","-243","-1225","-1771","gyro","94","-119","-126","quat","-4427","14610","5281","-2737","2018-03-27T16:04:55.219540"
"2018-03-27T16:04:55.225582","emg","1","0","-4","-1","-1","-3","-10","-2","2018-03-27T16:04:55.224464"
"2018-03-27T16:04:55.225906","emg","0","-2","0","-4","0","1","0","-1","2018-03-27T16:04:55.225020"
"2018-03-27T16:04:55.232747","emg","-1","1","0","0","-2","-3","-2","0","2018-03-27T16:04:55.231600"
"2018-03-27T16:04:55.233074","emg","-1","-1","1","0","0","2","2","1","2018-03-27T16:04:55.232197"
"2018-03-27T16:04:55.240404","acc","-313","-1138","-1706","gyro","257","-55","-127","quat","-4457","14592","5295","-2755","2018-03-27T16:04:55.239385"
"2018-03-27T16:04:55.247733","emg","0","-3","1","-1","0","-5","-5","-1","2018-03-27T16:04:55.246687"
"2018-03-27T16:04:55.248046","emg","5","1","-2","1","-1","3","1","0","2018-03-27T16:04:55.247216"
"2018-03-27T16:04:55.255560","emg","-9","-4","-5","-1","0","-2","1","-2","2018-03-27T16:04:55.254521"
"2018-03-27T16:04:55.255872","emg","-1","-1","-1","-2","-3","-1","-4","-3","2018-03-27T16:04:55.255068"
"2018-03-27T16:04:55.263773","acc","-308","-1200","-1765","gyro","295","-72","-115","quat","-4493","14573","5307","-2778","2018-03-27T16:04:55.262780"
"2018-03-27T16:04:55.264862","emg","-3","-2","-3","-1","-1","1","0","-1","2018-03-27T16:04:55.264100"
"2018-03-27T16:04:55.265217","emg","0","-2","-1","-2","1","0","2","-2","2018-03-27T16:04:55.264435"
"2018-03-27T16:04:55.278778","emg","0","-1","-1","1","-2","-4","-9","-2","2018-03-27T16:04:55.277678"
"2018-03-27T16:04:55.279099","emg","-1","-1","1","-1","0","-1","-4","-2","2018-03-27T16:04:55.278291"
"2018-03-27T16:04:55.280180","acc","-314","-1294","-1798","gyro","196","-79","-98","quat","-4516","14557","5319","-2798","2018-03-27T16:04:55.279503"
"2018-03-27T16:04:55.285372","emg","-1","0","-1","0","-2","-10","-9","-3","2018-03-27T16:04:55.284304"
"2018-03-27T16:04:55.285748","emg","-2","0","-1","0","0","5","5","2","2018-03-27T16:04:55.284853"
"2018-03-27T16:04:55.292672","emg","-1","-2","-4","-3","-6","-3","-13","-4","2018-03-27T16:04:55.291626"
"2018-03-27T16:04:55.292982","emg","1","1","-1","0","1","6","15","4","2018-03-27T16:04:55.292173"
"2018-03-27T16:04:55.300413","acc","-347","-1303","-1788","gyro","49","-53","-49","quat","-4516","14552","5326","-2811","2018-03-27T16:04:55.299400"
"2018-03-27T16:04:55.308120","emg","0","0","0","-1","-4","-8","-6","-2","2018-03-27T16:04:55.307072"
"2018-03-27T16:04:55.308440","emg","-3","-3","-1","0","0","-5","-4","-2","2018-03-27T16:04:55.307684"
"2018-03-27T16:04:55.315566","emg","0","-2","1","-4","-3","-1","5","-1","2018-03-27T16:04:55.314510"
"2018-03-27T16:04:55.315877","emg","0","-1","0","-1","-3","-3","-2","-1","2018-03-27T16:04:55.315051"
"2018-03-27T16:04:55.324033","acc","-362","-1256","-1757","gyro","-68","-37","-19","quat","-4495","14555","5331","-2817","2018-03-27T16:04:55.323039"
"2018-03-27T16:04:55.325144","emg","0","0","0","-1","1","5","1","-2","2018-03-27T16:04:55.324354"
"2018-03-27T16:04:55.325447","emg","-4","-1","1","0","0","-4","-9","-3","2018-03-27T16:04:55.324706"
"2018-03-27T16:04:55.338706","emg","1","-1","0","0","0","4","24","7","2018-03-27T16:04:55.337624"
"2018-03-27T16:04:55.339036","emg","-1","-1","-2","-1","-1","-2","-8","-3","2018-03-27T16:04:55.338215"
"2018-03-27T16:04:55.340115","acc","-352","-1243","-1747","gyro","-103","-35","-8","quat","-4469","14561","5335","-2820","2018-03-27T16:04:55.339436"
"2018-03-27T16:04:55.345083","emg","-3","-1","0","0","0","-1","2","1","2018-03-27T16:04:55.344114"
"2018-03-27T16:04:55.345447","emg","1","-2","-1","0","0","9","0","1","2018-03-27T16:04:55.344616"
"2018-03-27T16:04:55.352794","emg","1","-1","-1","-1","0","-5","-5","-2","2018-03-27T16:04:55.351737"
"2018-03-27T16:04:55.353165","emg","-2","-1","-2","-2","-3","-2","2","-1","2018-03-27T16:04:55.352321"
"2018-03-27T16:04:55.360425","acc","-342","-1265","-1738","gyro","-86","-37","16","quat","-4448","14567","5335","-2826","2018-03-27T16:04:55.359458"
"2018-03-27T16:04:55.368181","emg","-1","-1","-3","1","-1","0","4","1","2018-03-27T16:04:55.367105"
