"2018-07-03T15:37:03.198756","emg","-3","-2","-2","-1","0","0","1","-2","2018-07-03T15:37:03.197636"
"2018-07-03T15:37:03.199116","emg","-2","-1","0","0","-1","0","0","-1","2018-07-03T15:37:03.198151"
"2018-07-03T15:37:03.207056","acc","879","-219","1687","gyro","5","-8","1","quat","13244","1373","-3716","8793","2018-07-03T15:37:03.205945"
"2018-07-03T15:37:03.208029","emg","-1","0","-2","-2","2","-2","-1","3","2018-07-03T15:37:03.207249"
"2018-07-03T15:37:03.208510","emg","-2","0","-1","-1","-3","-2","-3","-2","2018-07-03T15:37:03.207580"
"2018-07-03T15:37:03.222222","emg","-2","-3","1","-2","-1","0","1","-2","2018-07-03T15:37:03.221235"
"2018-07-03T15:37:03.222507","emg","-1","-1","-1","-1","-2","-1","0","-1","2018-07-03T15:37:03.221822"
"2018-07-03T15:37:03.224072","acc","877","-221","1675","gyro","0","-7","-1","quat","13244","1372","-3717","8793","2018-07-03T15:37:03.223382"
"2018-07-03T15:37:03.228242","emg","1","-2","-2","1","-1","0","0","-3","2018-07-03T15:37:03.227504"
"2018-07-03T15:37:03.228550","emg","-2","-6","0","-3","-1","-1","-5","-2","2018-07-03T15:37:03.227866"
"2018-07-03T15:37:03.236432","emg","-1","5","1","-1","0","-1","1","-1","2018-07-03T15:37:03.235503"
"2018-07-03T15:37:03.236877","emg","0","-2","-1","-1","-1","-5","-3","-1","2018-07-03T15:37:03.236019"
"2018-07-03T15:37:03.244115","acc","876","-220","1668","gyro","4","-7","-3","quat","13244","1372","-3717","8793","2018-07-03T15:37:03.243069"
"2018-07-03T15:37:03.251232","emg","-2","0","-2","0","-1","0","-3","0","2018-07-03T15:37:03.250162"
"2018-07-03T15:37:03.251569","emg","0","-2","0","0","0","1","-1","-1","2018-07-03T15:37:03.250669"
"2018-07-03T15:37:03.258840","emg","0","-4","-3","-1","0","-2","0","2","2018-07-03T15:37:03.257785"
"2018-07-03T15:37:03.259179","emg","-1","-2","0","-1","-2","1","-1","1","2018-07-03T15:37:03.258273"
"2018-07-03T15:37:03.267017","acc","883","-221","1681","gyro","-4","-7","0","quat","13244","1372","-3718","8793","2018-07-03T15:37:03.265930"
"2018-07-03T15:37:03.268196","emg","1","0","-1","-1","-2","-2","0","-1","2018-07-03T15:37:03.267440"
"2018-07-03T15:37:03.268541","emg","2","0","-1","0","-2","0","1","0","2018-07-03T15:37:03.267779"
"2018-07-03T15:37:03.282118","emg","-3","-1","-1","0","0","1","-2","-5","2018-07-03T15:37:03.281082"
"2018-07-03T15:37:03.282650","emg","-1","-4","-2","-2","-2","0","0","0","2018-07-03T15:37:03.281549"
"2018-07-03T15:37:03.283738","acc","876","-220","1667","gyro","0","-8","-1","quat","13244","1372","-3718","8793","2018-07-03T15:37:03.283061"
"2018-07-03T15:37:03.288865","emg","-2","6","-2","-3","-4","0","-1","-2","2018-07-03T15:37:03.287759"
"2018-07-03T15:37:03.289202","emg","0","1","1","1","-1","-1","0","3","2018-07-03T15:37:03.288265"
"2018-07-03T15:37:03.296455","emg","-1","0","-3","-1","-3","-2","0","5","2018-07-03T15:37:03.295360"
"2018-07-03T15:37:03.296829","emg","-1","-1","0","0","-1","-1","-2","-4","2018-07-03T15:37:03.295856"
"2018-07-03T15:37:03.303907","acc","878","-218","1668","gyro","8","-8","-1","quat","13244","1372","-3718","8793","2018-07-03T15:37:03.302959"
"2018-07-03T15:37:03.311322","emg","-2","-7","0","-1","-1","-2","-1","0","2018-07-03T15:37:03.310264"
"2018-07-03T15:37:03.311662","emg","1","-1","-3","-3","-1","-1","-2","-3","2018-07-03T15:37:03.310754"
"2018-07-03T15:37:03.318333","emg","-2","3","0","0","-1","1","0","1","2018-07-03T15:37:03.317529"
"2018-07-03T15:37:03.318687","emg","0","3","-2","1","3","-1","-2","-1","2018-07-03T15:37:03.317879"
"2018-07-03T15:37:03.327129","acc","879","-208","1676","gyro","3","-11","0","quat","13244","1372","-3719","8793","2018-07-03T15:37:03.326049"
"2018-07-03T15:37:03.328254","emg","-2","-9","-1","-14","-1","0","-1","-3","2018-07-03T15:37:03.327513"
"2018-07-03T15:37:03.328632","emg","-3","0","-1","16","-1","-1","-1","2","2018-07-03T15:37:03.327831"
"2018-07-03T15:37:03.342301","emg","-4","-9","-1","-6","-2","-2","-2","-2","2018-07-03T15:37:03.341246"
"2018-07-03T15:37:03.342791","emg","2","4","-1","0","-1","0","1","-1","2018-07-03T15:37:03.341719"
"2018-07-03T15:37:03.344022","acc","890","-212","1666","gyro","6","-10","0","quat","13244","1372","-3719","8793","2018-07-03T15:37:03.343270"
"2018-07-03T15:37:03.349085","emg","0","7","2","1","0","-1","0","-1","2018-07-03T15:37:03.347947"
"2018-07-03T15:37:03.349425","emg","-5","-11","-4","-6","-4","0","0","-1","2018-07-03T15:37:03.348464"
"2018-07-03T15:37:03.356372","emg","2","6","1","0","1","-2","-3","-3","2018-07-03T15:37:03.355311"
"2018-07-03T15:37:03.356760","emg","-1","1","8","-35","-11","-4","-1","-3","2018-07-03T15:37:03.355806"
"2018-07-03T15:37:03.364240","acc","874","-169","1702","gyro","-5","-18","13","quat","13242","1376","-3720","8793","2018-07-03T15:37:03.363140"
"2018-07-03T15:37:03.371306","emg","-1","-9","-13","63","2","-2","-2","1","2018-07-03T15:37:03.370242"
"2018-07-03T15:37:03.371644","emg","4","18","-1","-9","5","2","2","0","2018-07-03T15:37:03.370742"
"2018-07-03T15:37:03.378776","emg","-3","-24","5","16","-19","-3","-1","-4","2018-07-03T15:37:03.377811"
"2018-07-03T15:37:03.379082","emg","0","0","45","-16","10","-2","-2","1","2018-07-03T15:37:03.378284"
"2018-07-03T15:37:03.387200","acc","815","39","1933","gyro","75","-99","84","quat","13236","1405","-3702","8806","2018-07-03T15:37:03.386050"
"2018-07-03T15:37:03.388253","emg","14","3","-58","-12","26","3","1","9","2018-07-03T15:37:03.387427"
"2018-07-03T15:37:03.388671","emg","11","16","34","4","0","8","4","2","2018-07-03T15:37:03.387826"
"2018-07-03T15:37:03.402558","emg","-21","-2","-7","48","-15","0","1","-16","2018-07-03T15:37:03.401406"
"2018-07-03T15:37:03.402924","emg","-22","11","-43","-70","-40","-10","-5","-18","2018-07-03T15:37:03.401997"
"2018-07-03T15:37:03.404169","acc","667","283","2116","gyro","117","-301","171","quat","13221","1464","-3680","8828","2018-07-03T15:37:03.403287"
"2018-07-03T15:37:03.409415","emg","-16","-88","-25","-30","-4","-10","-8","-5","2018-07-03T15:37:03.408112"
"2018-07-03T15:37:03.409861","emg","9","-12","23","70","61","7","-3","6","2018-07-03T15:37:03.408751"
"2018-07-03T15:37:03.416560","emg","26","17","-14","1","32","10","8","17","2018-07-03T15:37:03.415490"
"2018-07-03T15:37:03.416968","emg","-7","8","10","-5","19","7","5","1","2018-07-03T15:37:03.415973"
"2018-07-03T15:37:03.424209","acc","768","396","2172","gyro","-652","-490","161","quat","13212","1445","-3756","8812","2018-07-03T15:37:03.423262"
"2018-07-03T15:37:03.431264","emg","-6","28","-6","-84","-105","-19","-8","-14","2018-07-03T15:37:03.430208"
"2018-07-03T15:37:03.431602","emg","11","3","-9","31","-27","-17","-13","-4","2018-07-03T15:37:03.430689"
"2018-07-03T15:37:03.438831","emg","-32","-11","4","-51","48","10","1","-19","2018-07-03T15:37:03.437730"
"2018-07-03T15:37:03.439211","emg","1","-4","12","127","34","20","7","7","2018-07-03T15:37:03.438222"
"2018-07-03T15:37:03.447110","acc","1003","164","2521","gyro","-1873","-164","491","quat","13188","1178","-3954","8801","2018-07-03T15:37:03.446038"
"2018-07-03T15:37:03.448245","emg","43","33","62","-49","-8","12","11","46","2018-07-03T15:37:03.447497"
"2018-07-03T15:37:03.448629","emg","12","-9","-48","64","55","-11","1","-9","2018-07-03T15:37:03.447823"
"2018-07-03T15:37:03.462458","emg","-13","-3","34","-48","-59","-12","-11","8","2018-07-03T15:37:03.461373"
"2018-07-03T15:37:03.462823","emg","-32","-10","-64","-103","-80","-11","-11","-14","2018-07-03T15:37:03.461916"
"2018-07-03T15:37:03.464035","acc","1303","-659","2475","gyro","-2580","948","257","quat","13231","702","-4069","8735","2018-07-03T15:37:03.463199"
"2018-07-03T15:37:03.469312","emg","-9","6","19","127","35","-9","-14","-30","2018-07-03T15:37:03.468129"
"2018-07-03T15:37:03.469679","emg","-20","-13","-9","-128","-39","-12","-18","0","2018-07-03T15:37:03.468767"
"2018-07-03T15:37:03.476467","emg","36","2","-8","127","42","32","46","12","2018-07-03T15:37:03.475324"
"2018-07-03T15:37:03.476890","emg","8","8","22","-94","72","14","5","13","2018-07-03T15:37:03.475918"
"2018-07-03T15:37:03.484302","acc","1374","-901","2926","gyro","-1227","2122","-8","quat","13330","320","-3880","8693","2018-07-03T15:37:03.483171"
"2018-07-03T15:37:03.491570","emg","8","-1","23","13","-31","-13","-17","24","2018-07-03T15:37:03.490456"
"2018-07-03T15:37:03.491931","emg","-3","1","-22","-65","-5","-5","24","11","2018-07-03T15:37:03.491031"
"2018-07-03T15:37:03.499493","emg","19","2","-17","-7","22","11","-1","-15","2018-07-03T15:37:03.498297"
"2018-07-03T15:37:03.499883","emg","-20","-13","7","-4","-31","-49","-15","8","2018-07-03T15:37:03.498828"
"2018-07-03T15:37:03.507198","acc","1137","-313","2703","gyro","220","3008","234","quat","13428","65","-3419","8741","2018-07-03T15:37:03.506107"
"2018-07-03T15:37:03.508269","emg","-21","4","-23","5","70","43","5","-30","2018-07-03T15:37:03.507430"
"2018-07-03T15:37:03.508660","emg","4","-9","-16","-70","-55","-13","-3","28","2018-07-03T15:37:03.507785"
"2018-07-03T15:37:03.522427","emg","-4","4","13","47","-48","9","-13","-25","2018-07-03T15:37:03.521350"
"2018-07-03T15:37:03.522796","emg","8","8","35","77","95","36","14","-16","2018-07-03T15:37:03.521867"
"2018-07-03T15:37:03.523975","acc","465","-37","2631","gyro","-132","3732","307","quat","13529","-314","-2870","8777","2018-07-03T15:37:03.523134"
"2018-07-03T15:37:03.529138","emg","-17","-13","-7","-7","-20","-63","-18","20","2018-07-03T15:37:03.527959"
"2018-07-03T15:37:03.529500","emg","-12","-3","1","2","-16","-20","-11","-31","2018-07-03T15:37:03.528550"
"2018-07-03T15:37:03.536678","emg","15","5","13","-39","-32","11","5","23","2018-07-03T15:37:03.535468"
"2018-07-03T15:37:03.537048","emg","20","-18","-33","20","-42","-6","1","20","2018-07-03T15:37:03.536055"
"2018-07-03T15:37:03.544242","acc","74","-803","2690","gyro","-245","4233","848","quat","13564","-790","-2257","8872","2018-07-03T15:37:03.543102"
"2018-07-03T15:37:03.551527","emg","-23","13","-1","-7","34","31","11","-18","2018-07-03T15:37:03.550282"
"2018-07-03T15:37:03.551920","emg","3","-14","-20","-27","-102","0","-2","20","2018-07-03T15:37:03.550867"
"2018-07-03T15:37:03.559090","emg","7","6","10","-22","82","-28","-16","-29","2018-07-03T15:37:03.557912"
"2018-07-03T15:37:03.559479","emg","21","12","25","21","-4","30","6","-5","2018-07-03T15:37:03.558432"
"2018-07-03T15:37:03.567552","acc","-13","-1151","2588","gyro","870","4649","1460","quat","13523","-1159","-1474","9056","2018-07-03T15:37:03.566339"
"2018-07-03T15:37:03.568893","emg","-22","-2","2","-53","-43","-22","2","52","2018-07-03T15:37:03.567994"
"2018-07-03T15:37:03.569300","emg","-32","-2","6","-54","6","16","-2","-68","2018-07-03T15:37:03.568366"
"2018-07-03T15:37:03.582630","emg","-8","-4","-22","-30","0","-17","-11","17","2018-07-03T15:37:03.581462"
"2018-07-03T15:37:03.583196","emg","25","-12","-13","15","-16","-7","-3","2","2018-07-03T15:37:03.581978"
"2018-07-03T15:37:03.584443","acc","-370","-664","2207","gyro","1431","4962","1910","quat","13407","-1475","-573","9282","2018-07-03T15:37:03.583686"
"2018-07-03T15:37:03.588972","emg","22","12","24","-5","2","17","12","8","2018-07-03T15:37:03.587704"
"2018-07-03T15:37:03.589367","emg","-13","5","4","84","9","-11","-1","-12","2018-07-03T15:37:03.588295"
"2018-07-03T15:37:03.596637","emg","-35","-2","-16","-28","14","15","-7","-42","2018-07-03T15:37:03.595541"
"2018-07-03T15:37:03.596975","emg","4","-9","-19","-42","-7","-16","-4","-8","2018-07-03T15:37:03.596039"
"2018-07-03T15:37:03.603936","acc","-826","-472","1987","gyro","995","5141","2226","quat","13203","-1869","322","9513","2018-07-03T15:37:03.602987"
"2018-07-03T15:37:03.611331","emg","7","1","-6","7","-15","-7","1","9","2018-07-03T15:37:03.610273"
"2018-07-03T15:37:03.611668","emg","-16","2","22","30","42","23","-1","-15","2018-07-03T15:37:03.610751"
"2018-07-03T15:37:03.619031","emg","8","0","0","-11","-2","-9","2","21","2018-07-03T15:37:03.617923"
"2018-07-03T15:37:03.619391","emg","5","-6","-6","-3","-29","-18","-4","33","2018-07-03T15:37:03.618445"
"2018-07-03T15:37:03.627783","acc","-1134","-780","1875","gyro","851","5248","2334","quat","12932","-2296","1215","9717","2018-07-03T15:37:03.626174"
"2018-07-03T15:37:03.628982","emg","4","-6","6","14","16","14","4","-42","2018-07-03T15:37:03.628042"
"2018-07-03T15:37:03.629335","emg","-11","4","-1","14","30","-2","4","-9","2018-07-03T15:37:03.628477"
"2018-07-03T15:37:03.642340","emg","-12","-7","-8","-28","-24","-1","0","21","2018-07-03T15:37:03.641241"
"2018-07-03T15:37:03.642704","emg","8","4","-17","17","-16","1","-9","10","2018-07-03T15:37:03.641754"
"2018-07-03T15:37:03.643738","acc","-1228","-800","1764","gyro","1471","5217","2229","quat","12637","-2624","2157","9858","2018-07-03T15:37:03.642960"
"2018-07-03T15:37:03.648752","emg","-35","-1","9","-8","13","-7","0","-5","2018-07-03T15:37:03.647777"
"2018-07-03T15:37:03.649118","emg","34","-2","17","5","2","0","-5","6","2018-07-03T15:37:03.648211"
"2018-07-03T15:37:03.656088","emg","12","-8","-28","-15","-34","-18","-2","21","2018-07-03T15:37:03.655084"
"2018-07-03T15:37:03.656407","emg","-18","-8","14","19","11","9","8","-34","2018-07-03T15:37:03.655577"
"2018-07-03T15:37:03.663952","acc","-1135","-441","1606","gyro","1920","5174","1896","quat","12342","-2874","3123","9903","2018-07-03T15:37:03.662972"
"2018-07-03T15:37:03.671454","emg","14","3","-5","-1","6","-1","-8","-3","2018-07-03T15:37:03.670347"
"2018-07-03T15:37:03.671812","emg","2","20","22","-3","-12","1","4","-13","2018-07-03T15:37:03.670871"
"2018-07-03T15:37:03.679594","emg","-21","1","9","3","-12","-15","-11","18","2018-07-03T15:37:03.678255"
"2018-07-03T15:37:03.679960","emg","-3","-1","1","-6","8","3","5","14","2018-07-03T15:37:03.679021"
"2018-07-03T15:37:03.686982","acc","-1083","-195","1503","gyro","1786","4969","1719","quat","12022","-3110","4028","9899","2018-07-03T15:37:03.685981"
"2018-07-03T15:37:03.687917","emg","-3","-3","-14","-10","1","12","3","-97","2018-07-03T15:37:03.687175"
"2018-07-03T15:37:03.688241","emg","39","-24","8","11","-2","5","8","62","2018-07-03T15:37:03.687483"
"2018-07-03T15:37:03.702489","emg","32","17","11","-2","-2","0","0","25","2018-07-03T15:37:03.701389"
"2018-07-03T15:37:03.702852","emg","-96","18","-1","0","-4","-4","-8","-55","2018-07-03T15:37:03.701921"
"2018-07-03T15:37:03.703900","acc","-1093","-208","1403","gyro","1373","4651","1594","quat","11677","-3361","4826","9873","2018-07-03T15:37:03.703124"
"2018-07-03T15:37:03.709204","emg","28","-18","-17","-14","-12","-15","-9","51","2018-07-03T15:37:03.707960"
"2018-07-03T15:37:03.709767","emg","4","0","-12","5","5","2","2","22","2018-07-03T15:37:03.708484"
"2018-07-03T15:37:03.716049","emg","-26","-7","-9","-12","-4","-2","3","35","2018-07-03T15:37:03.715076"
"2018-07-03T15:37:03.716417","emg","10","-5","-1","9","-6","-3","-5","-79","2018-07-03T15:37:03.715529"
"2018-07-03T15:37:03.723556","acc","-1136","-84","1197","gyro","1244","4279","1534","quat","11319","-3581","5549","9832","2018-07-03T15:37:03.722697"
"2018-07-03T15:37:03.731120","emg","-3","15","15","7","2","-5","-12","-15","2018-07-03T15:37:03.730079"
"2018-07-03T15:37:03.731455","emg","-5","-4","-3","-6","3","10","13","-15","2018-07-03T15:37:03.730557"
"2018-07-03T15:37:03.738789","emg","1","-1","-21","-7","-11","-3","3","61","2018-07-03T15:37:03.737722"
"2018-07-03T15:37:03.739120","emg","22","9","16","9","5","0","-6","5","2018-07-03T15:37:03.738223"
"2018-07-03T15:37:03.746984","acc","-1161","54","1097","gyro","1157","3900","1434","quat","10965","-3766","6199","9776","2018-07-03T15:37:03.745889"
"2018-07-03T15:37:03.748106","emg","-1","-8","-7","3","-3","-1","12","11","2018-07-03T15:37:03.747362"
"2018-07-03T15:37:03.748453","emg","20","21","-13","-4","3","0","-2","21","2018-07-03T15:37:03.747688"
"2018-07-03T15:37:03.762545","emg","-5","-34","19","5","-10","-6","-7","-34","2018-07-03T15:37:03.761378"
"2018-07-03T15:37:03.763109","emg","-2","2","1","-9","-1","-2","0","19","2018-07-03T15:37:03.761885"
"2018-07-03T15:37:03.764359","acc","-1065","-51","1013","gyro","891","3432","1250","quat","10632","-3940","6742","9716","2018-07-03T15:37:03.763595"
"2018-07-03T15:37:03.769354","emg","-37","-4","-11","-2","0","2","2","2","2018-07-03T15:37:03.768137"
"2018-07-03T15:37:03.769747","emg","-15","-9","-28","0","6","5","-2","2","2018-07-03T15:37:03.768698"
"2018-07-03T15:37:03.785017","emg","7","21","11","4","-2","0","3","-6","2018-07-03T15:37:03.783789"
"2018-07-03T15:37:03.785592","emg","15","-10","-22","4","-7","-13","-11","6","2018-07-03T15:37:03.784315"
"2018-07-03T15:37:03.786850","acc","-1013","-25","863","gyro","610","2989","1089","quat","10321","-4105","7188","9663","2018-07-03T15:37:03.786088"
"2018-07-03T15:37:03.791326","emg","34","-23","8","-12","4","11","6","87","2018-07-03T15:37:03.790243"
"2018-07-03T15:37:03.791849","emg","-19","15","13","-1","-2","3","0","-108","2018-07-03T15:37:03.790783"
"2018-07-03T15:37:03.799026","emg","14","-2","39","-7","-4","-14","-14","-4","2018-07-03T15:37:03.797704"
"2018-07-03T15:37:03.799601","emg","12","-5","-29","-4","-2","1","5","57","2018-07-03T15:37:03.798293"
"2018-07-03T15:37:03.806434","acc","-1065","149","783","gyro","584","2609","1040","quat","10031","-4231","7581","9614","2018-07-03T15:37:03.805352"
"2018-07-03T15:37:03.814354","emg","7","13","-1","9","-3","-1","2","12","2018-07-03T15:37:03.813189"
"2018-07-03T15:37:03.814711","emg","19","6","25","8","5","-8","-3","42","2018-07-03T15:37:03.813765"
"2018-07-03T15:37:03.822258","emg","38","-8","-26","-3","5","16","6","-42","2018-07-03T15:37:03.821174"
"2018-07-03T15:37:03.822625","emg","-2","-13","16","-5","-2","2","2","7","2018-07-03T15:37:03.821686"
"2018-07-03T15:37:03.823663","acc","-1018","152","731","gyro","461","2191","1035","quat","9763","-4323","7908","9586","2018-07-03T15:37:03.822884"
"2018-07-03T15:37:03.828989","emg","-38","1","6","0","-1","2","4","-21","2018-07-03T15:37:03.827958"
"2018-07-03T15:37:03.829307","emg","-4","8","-12","4","6","-4","-3","7","2018-07-03T15:37:03.828452"
"2018-07-03T15:37:03.844887","emg","-20","1","2","3","2","-17","-3","-34","2018-07-03T15:37:03.843761"
"2018-07-03T15:37:03.845259","emg","0","12","2","0","-5","7","-2","10","2018-07-03T15:37:03.844278"
"2018-07-03T15:37:03.846319","acc","-917","154","604","gyro","387","1772","915","quat","9533","-4386","8173","9565","2018-07-03T15:37:03.845542"
"2018-07-03T15:37:03.851170","emg","16","5","11","8","1","3","2","-9","2018-07-03T15:37:03.850175"
"2018-07-03T15:37:03.851526","emg","5","-26","-54","-22","-4","1","-3","-4","2018-07-03T15:37:03.850677"
"2018-07-03T15:37:03.858952","emg","-19","0","-2","-2","-5","-14","-7","9","2018-07-03T15:37:03.857842"
"2018-07-03T15:37:03.859313","emg","6","-2","-14","-2","3","-2","-11","-7","2018-07-03T15:37:03.858358"
"2018-07-03T15:37:03.866773","acc","-927","381","457","gyro","437","1423","674","quat","9356","-4419","8394","9534","2018-07-03T15:37:03.865719"
"2018-07-03T15:37:03.874141","emg","-2","10","29","-8","0","-2","3","-40","2018-07-03T15:37:03.873015"
"2018-07-03T15:37:03.874517","emg","-58","14","8","14","1","-24","-10","15","2018-07-03T15:37:03.873525"
"2018-07-03T15:37:03.882581","emg","18","-6","-10","-4","-12","15","8","-4","2018-07-03T15:37:03.881499"
"2018-07-03T15:37:03.882951","emg","-2","4","21","3","0","-2","-1","14","2018-07-03T15:37:03.882005"
"2018-07-03T15:37:03.883987","acc","-975","518","399","gyro","298","1149","409","quat","9216","-4456","8564","9501","2018-07-03T15:37:03.883213"
"2018-07-03T15:37:03.888502","emg","-1","-6","-41","-16","-6","5","-1","-9","2018-07-03T15:37:03.887594"
"2018-07-03T15:37:03.888907","emg","-10","0","17","4","-2","-1","0","29","2018-07-03T15:37:03.888022"
"2018-07-03T15:37:03.904971","emg","-17","-1","-19","0","14","7","-6","-49","2018-07-03T15:37:03.903753"
"2018-07-03T15:37:03.905331","emg","-7","-12","-10","9","1","4","8","19","2018-07-03T15:37:03.904351"
"2018-07-03T15:37:03.906412","acc","-1053","515","378","gyro","213","826","265","quat","9116","-4484","8686","9474","2018-07-03T15:37:03.905632"
"2018-07-03T15:37:03.911481","emg","-9","14","20","0","-2","4","-2","5","2018-07-03T15:37:03.910280"
"2018-07-03T15:37:03.911851","emg","22","-4","-2","-7","-7","1","-3","9","2018-07-03T15:37:03.910810"
"2018-07-03T15:37:03.918589","emg","-8","11","-10","8","5","-1","-5","-36","2018-07-03T15:37:03.917604"
"2018-07-03T15:37:03.918901","emg","13","-6","57","-2","-7","-4","2","0","2018-07-03T15:37:03.918060"
"2018-07-03T15:37:03.925961","acc","-1293","458","362","gyro","255","464","15","quat","9081","-4505","8761","9428","2018-07-03T15:37:03.925209"
"2018-07-03T15:37:03.943030","emg","11","-3","-95","-12","5","-7","-5","17","2018-07-03T15:37:03.941930"
"2018-07-03T15:37:03.943396","emg","-18","-37","21","7","-1","-1","-15","-32","2018-07-03T15:37:03.942450"
"2018-07-03T15:37:03.944361","emg","7","1","11","-6","-6","7","12","15","2018-07-03T15:37:03.943550"
"2018-07-03T15:37:03.944767","emg","-12","11","-13","3","0","-2","2","-19","2018-07-03T15:37:03.943884"
"2018-07-03T15:37:03.945849","acc","-1334","494","334","gyro","184","154","-153","quat","9087","-4517","8794","9387","2018-07-03T15:37:03.945082"
"2018-07-03T15:37:03.949032","emg","0","-37","45","4","-8","-11","-3","-4","2018-07-03T15:37:03.947893"
"2018-07-03T15:37:03.949395","emg","-3","15","-18","-3","-1","6","0","4","2018-07-03T15:37:03.948411"
"2018-07-03T15:37:03.964888","emg","-44","2","11","3","5","-10","-8","9","2018-07-03T15:37:03.963745"
"2018-07-03T15:37:03.965257","emg","51","1","-27","-8","-4","3","7","3","2018-07-03T15:37:03.964268"
"2018-07-03T15:37:03.966351","acc","-1301","581","371","gyro","137","39","-260","quat","9109","-4523","8806","9350","2018-07-03T15:37:03.965567"
"2018-07-03T15:37:03.971420","emg","7","3","12","-2","-5","-2","-1","-1","2018-07-03T15:37:03.970326"
"2018-07-03T15:37:03.971783","emg","3","-10","23","3","5","1","-2","-6","2018-07-03T15:37:03.970845"
"2018-07-03T15:37:03.979039","emg","-7","2","0","12","4","16","8","4","2018-07-03T15:37:03.977946"
"2018-07-03T15:37:03.979401","emg","-10","-12","-34","-1","1","-2","-2","2","2018-07-03T15:37:03.978469"
"2018-07-03T15:37:03.986457","acc","-1425","452","327","gyro","96","-25","-299","quat","9144","-4544","8804","9308","2018-07-03T15:37:03.985397"
"2018-07-03T15:37:03.994373","emg","3","2","-10","0","-4","-7","0","-8","2018-07-03T15:37:03.993135"
"2018-07-03T15:37:03.994747","emg","9","0","-16","-11","-8","-6","-6","20","2018-07-03T15:37:03.993731"
"2018-07-03T15:37:04.001863","emg","8","0","-3","8","8","12","5","-39","2018-07-03T15:37:04.000886"
"2018-07-03T15:37:04.002225","emg","-22","-10","28","0","1","-4","0","0","2018-07-03T15:37:04.001337"
"2018-07-03T15:37:04.003282","acc","-1438","379","307","gyro","108","-100","-320","quat","9190","-4563","8794","9263","2018-07-03T15:37:04.002536"
"2018-07-03T15:37:04.009032","emg","4","6","-51","-5","2","3","4","32","2018-07-03T15:37:04.007992"
"2018-07-03T15:37:04.009349","emg","-20","2","52","3","-7","-5","0","-52","2018-07-03T15:37:04.008477"
"2018-07-03T15:37:04.024892","emg","10","-7","-83","-15","-7","-3","-3","14","2018-07-03T15:37:04.023741"
"2018-07-03T15:37:04.025265","emg","-1","5","15","4","6","-7","-4","-9","2018-07-03T15:37:04.024266"
"2018-07-03T15:37:04.026311","acc","-1502","377","308","gyro","83","-128","-336","quat","9239","-4584","8778","9219","2018-07-03T15:37:04.025537"
"2018-07-03T15:37:04.031358","emg","1","-1","24","7","0","1","-4","-6","2018-07-03T15:37:04.030268"
"2018-07-03T15:37:04.031719","emg","5","2","-18","-4","-2","1","1","16","2018-07-03T15:37:04.030782"
"2018-07-03T15:37:04.038937","emg","0","4","32","-3","-7","-2","-1","14","2018-07-03T15:37:04.037889"
"2018-07-03T15:37:04.039307","emg","-8","-1","-14","-1","-3","-5","-2","-18","2018-07-03T15:37:04.038403"
"2018-07-03T15:37:04.046819","acc","-1692","382","347","gyro","55","-164","-431","quat","9300","-4616","8750","9168","2018-07-03T15:37:04.045747"
"2018-07-03T15:37:04.062921","emg","9","11","17","4","3","0","-3","-4","2018-07-03T15:37:04.061822"
"2018-07-03T15:37:04.063289","emg","-1","3","-1","2","1","7","8","7","2018-07-03T15:37:04.062346"
"2018-07-03T15:37:04.064264","emg","-8","-20","14","1","-8","-10","-3","2","2018-07-03T15:37:04.063445"
"2018-07-03T15:37:04.064666","emg","5","-1","-31","-12","0","-3","-2","13","2018-07-03T15:37:04.063782"
"2018-07-03T15:37:04.065692","acc","-1650","319","383","gyro","14","-182","-445","quat","9365","-4653","8711","9120","2018-07-03T15:37:04.064965"
"2018-07-03T15:37:04.069042","emg","1","2","25","7","7","4","1","14","2018-07-03T15:37:04.067919"
"2018-07-03T15:37:04.069406","emg","-2","-2","-14","4","0","4","0","-27","2018-07-03T15:37:04.068432"
"2018-07-03T15:37:04.084666","emg","-3","-3","16","-3","-3","-9","-3","25","2018-07-03T15:37:04.083508"
"2018-07-03T15:37:04.085040","emg","4","9","5","3","-1","0","1","-3","2018-07-03T15:37:04.084044"
"2018-07-03T15:37:04.086103","acc","-1635","302","385","gyro","41","-127","-454","quat","9426","-4692","8680","9066","2018-07-03T15:37:04.085321"
"2018-07-03T15:37:04.091460","emg","7","14","4","1","0","4","-3","-7","2018-07-03T15:37:04.090372"
"2018-07-03T15:37:04.091825","emg","1","-3","8","16","13","7","5","12","2018-07-03T15:37:04.090892"
"2018-07-03T15:37:04.099005","emg","6","-6","-37","-15","-3","-5","-1","27","2018-07-03T15:37:04.097902"
"2018-07-03T15:37:04.099365","emg","-14","2","15","22","-4","-5","-5","-47","2018-07-03T15:37:04.098424"
"2018-07-03T15:37:04.106590","acc","-1809","451","393","gyro","121","-62","-394","quat","9473","-4718","8673","9011","2018-07-03T15:37:04.105516"
"2018-07-03T15:37:04.114226","emg","-22","-18","43","-25","-4","-1","-1","-12","2018-07-03T15:37:04.113136"
"2018-07-03T15:37:04.114589","emg","3","12","-15","1","0","-2","-3","11","2018-07-03T15:37:04.113645"
"2018-07-03T15:37:04.122312","emg","9","14","-27","4","-3","-1","-3","-10","2018-07-03T15:37:04.121228"
"2018-07-03T15:37:04.122679","emg","7","4","1","-9","-6","-1","0","21","2018-07-03T15:37:04.121741"
"2018-07-03T15:37:04.123715","acc","-1864","523","388","gyro","28","-12","-296","quat","9496","-4745","8671","8973","2018-07-03T15:37:04.122946"
"2018-07-03T15:37:04.128796","emg","-10","-11","14","7","-7","-4","-5","-17","2018-07-03T15:37:04.127626"
"2018-07-03T15:37:04.129235","emg","8","-4","-8","-5","5","5","3","6","2018-07-03T15:37:04.128159"
"2018-07-03T15:37:04.145041","emg","1","6","31","0","0","-2","-2","-1","2018-07-03T15:37:04.143767"
"2018-07-03T15:37:04.145616","emg","-6","-6","-23","-5","3","18","0","-4","2018-07-03T15:37:04.144348"
"2018-07-03T15:37:04.146865","acc","-1859","419","423","gyro","-152","49","-102","quat","9492","-4784","8662","8968","2018-07-03T15:37:04.146112"
"2018-07-03T15:37:04.151454","emg","3","-2","23","4","-3","-17","-2","-7","2018-07-03T15:37:04.150282"
"2018-07-03T15:37:04.151842","emg","-9","3","-11","-16","-9","-9","-2","15","2018-07-03T15:37:04.150806"
"2018-07-03T15:37:04.160148","emg","3","-10","28","1","4","2","-2","-15","2018-07-03T15:37:04.158054"
"2018-07-03T15:37:04.160721","emg","4","-6","-53","-6","9","-6","1","14","2018-07-03T15:37:04.158769"
"2018-07-03T15:37:04.166660","acc","-1863","309","401","gyro","-105","106","-95","quat","9487","-4829","8659","8951","2018-07-03T15:37:04.165640"
"2018-07-03T15:37:04.174095","emg","-3","-1","-8","5","-3","20","0","-8","2018-07-03T15:37:04.173007"
"2018-07-03T15:37:04.174459","emg","9","2","8","-5","-5","-16","-4","0","2018-07-03T15:37:04.173519"
"2018-07-03T15:37:04.181859","emg","1","6","24","9","2","10","0","3","2018-07-03T15:37:04.180885"
"2018-07-03T15:37:04.182221","emg","-4","1","87","-3","-6","-1","-1","-2","2018-07-03T15:37:04.181347"
"2018-07-03T15:37:04.183645","acc","-1915","290","373","gyro","25","188","-255","quat","9496","-4886","8671","8899","2018-07-03T15:37:04.182787"
"2018-07-03T15:37:04.188641","emg","-2","-16","-111","-6","-1","3","-1","0","2018-07-03T15:37:04.187620"
"2018-07-03T15:37:04.189016","emg","4","1","-14","-8","0","-7","-2","1","2018-07-03T15:37:04.188099"
"2018-07-03T15:37:04.204547","emg","2","4","42","-8","-5","-8","-1","20","2018-07-03T15:37:04.203466"
"2018-07-03T15:37:04.204965","emg","-5","11","2","10","3","1","-2","-31","2018-07-03T15:37:04.203983"
"2018-07-03T15:37:04.206035","acc","-1826","407","371","gyro","95","288","-182","quat","9487","-4928","8707","8849","2018-07-03T15:37:04.205257"
"2018-07-03T15:37:04.211417","emg","-29","-8","23","-3","0","-6","0","-4","2018-07-03T15:37:04.210303"
"2018-07-03T15:37:04.211772","emg","12","-8","26","1","-12","0","-2","5","2018-07-03T15:37:04.210830"
"2018-07-03T15:37:04.219312","emg","-4","-14","-67","-14","-1","-10","-6","-8","2018-07-03T15:37:04.218037"
"2018-07-03T15:37:04.219859","emg","0","2","7","13","7","16","9","14","2018-07-03T15:37:04.218650"
"2018-07-03T15:37:04.226916","acc","-1958","508","314","gyro","211","312","-14","quat","9460","-4942","8774","8805","2018-07-03T15:37:04.225986"
"2018-07-03T15:37:04.233897","emg","9","19","36","1","4","-2","1","22","2018-07-03T15:37:04.233003"
"2018-07-03T15:37:04.234182","emg","-37","-9","60","20","3","5","-3","-44","2018-07-03T15:37:04.233495"
"2018-07-03T15:37:04.241686","emg","-1","2","-80","-14","-5","0","1","2","2018-07-03T15:37:04.240746"
"2018-07-03T15:37:04.242003","emg","-18","-18","-4","-13","-10","-12","-7","2","2018-07-03T15:37:04.241224"
"2018-07-03T15:37:04.243086","acc","-2065","527","293","gyro","163","223","24","quat","9434","-4951","8829","8772","2018-07-03T15:37:04.242346"
"2018-07-03T15:37:04.249067","emg","18","14","7","-4","-4","-2","-3","2","2018-07-03T15:37:04.248020"
"2018-07-03T15:37:04.249380","emg","3","-5","-69","-13","0","6","4","30","2018-07-03T15:37:04.248566"
"2018-07-03T15:37:04.264745","emg","4","2","20","12","2","-2","-1","-25","2018-07-03T15:37:04.263681"
"2018-07-03T15:37:04.265065","emg","4","10","-8","-1","0","0","-1","11","2018-07-03T15:37:04.264211"
"2018-07-03T15:37:04.266112","acc","-1891","481","253","gyro","48","134","78","quat","9407","-4957","8867","8760","2018-07-03T15:37:04.265376"
"2018-07-03T15:37:04.271223","emg","-2","-4","-12","8","1","-2","0","-14","2018-07-03T15:37:04.270202"
"2018-07-03T15:37:04.271533","emg","6","5","9","-7","-4","-4","-3","1","2018-07-03T15:37:04.270742"
"2018-07-03T15:37:04.278894","emg","-2","16","36","-4","0","4","1","0","2018-07-03T15:37:04.277780"
"2018-07-03T15:37:04.279208","emg","-1","-43","-94","0","-2","-5","-1","4","2018-07-03T15:37:04.278381"
"2018-07-03T15:37:04.286326","acc","-1979","522","256","gyro","-3","132","3","quat","9382","-4976","8896","8746","2018-07-03T15:37:04.285329"
"2018-07-03T15:37:04.293585","emg","48","11","30","4","3","1","1","1","2018-07-03T15:37:04.292692"
"2018-07-03T15:37:04.293940","emg","0","5","7","-8","-7","-8","-3","-1","2018-07-03T15:37:04.293162"
"2018-07-03T15:37:04.302425","emg","2","-2","-13","-4","0","0","-4","-7","2018-07-03T15:37:04.301302"
"2018-07-03T15:37:04.302782","emg","-1","3","44","10","-4","2","4","2","2018-07-03T15:37:04.301887"
"2018-07-03T15:37:04.303983","acc","-2014","442","286","gyro","-75","146","27","quat","9355","-5004","8915","8739","2018-07-03T15:37:04.303165"
"2018-07-03T15:37:04.308495","emg","-8","-7","-35","2","7","9","1","-5","2018-07-03T15:37:04.307597"
"2018-07-03T15:37:04.308902","emg","4","-5","-16","5","3","-11","0","-2","2018-07-03T15:37:04.308072"
"2018-07-03T15:37:04.324285","emg","-3","-1","22","-9","-11","-1","-4","-2","2018-07-03T15:37:04.323220"
"2018-07-03T15:37:04.324709","emg","2","9","3","-17","-3","-8","-5","18","2018-07-03T15:37:04.323750"
"2018-07-03T15:37:04.325859","acc","-2013","326","285","gyro","10","106","34","quat","9342","-5027","8934","8721","2018-07-03T15:37:04.325079"
"2018-07-03T15:37:04.331277","emg","-9","-5","2","16","3","0","1","-33","2018-07-03T15:37:04.330229"
"2018-07-03T15:37:04.331594","emg","3","2","32","-10","3","7","2","12","2018-07-03T15:37:04.330767"
"2018-07-03T15:37:04.339000","emg","-14","-11","45","23","-2","0","0","3","2018-07-03T15:37:04.337859"
"2018-07-03T15:37:04.339413","emg","1","-10","-92","-17","-14","-9","-5","-4","2018-07-03T15:37:04.338388"
"2018-07-03T15:37:04.346238","acc","-1999","460","220","gyro","139","7","116","quat","9329","-5012","8968","8708","2018-07-03T15:37:04.345295"
"2018-07-03T15:37:04.354245","emg","-2","8","-9","-19","-10","-2","-2","8","2018-07-03T15:37:04.353149"
"2018-07-03T15:37:04.354608","emg","-2","1","40","10","13","13","0","-9","2018-07-03T15:37:04.353667"
"2018-07-03T15:37:04.362155","emg","2","-7","-39","-4","0","-7","-2","-7","2018-07-03T15:37:04.361062"
"2018-07-03T15:37:04.362516","emg","1","11","53","8","0","1","-2","8","2018-07-03T15:37:04.361572"
"2018-07-03T15:37:04.363548","acc","-1948","597","183","gyro","5","-110","234","quat","9302","-4981","8991","8732","2018-07-03T15:37:04.362771"
"2018-07-03T15:37:04.368855","emg","-12","4","-11","-5","-2","-6","-1","-5","2018-07-03T15:37:04.367697"
"2018-07-03T15:37:04.369220","emg","-2","-3","-27","2","-4","1","-1","-1","2018-07-03T15:37:04.368222"
"2018-07-03T15:37:04.384582","acc","-1900","567","189","gyro","-187","-192","343","quat","9264","-4952","8991","8788","2018-07-03T15:37:04.383510"
"2018-07-03T15:37:04.385754","emg","2","7","1","-9","1","-3","-1","1","2018-07-03T15:37:04.384993"
"2018-07-03T15:37:04.386102","emg","7","17","35","3","0","-1","0","-3","2018-07-03T15:37:04.385330"
"2018-07-03T15:37:04.391270","emg","-2","3","-4","7","4","1","0","3","2018-07-03T15:37:04.390158"
"2018-07-03T15:37:04.391606","emg","-1","-18","2","7","0","-1","-1","0","2018-07-03T15:37:04.390691"
"2018-07-03T15:37:04.407415","acc","-1905","455","271","gyro","-221","-204","324","quat","9236","-4932","8976","8844","2018-07-03T15:37:04.406192"
"2018-07-03T15:37:04.408754","emg","-2","11","-10","-13","-5","-2","-2","1","2018-07-03T15:37:04.407846"
"2018-07-03T15:37:04.409161","emg","-2","-10","29","-2","0","-3","-3","-6","2018-07-03T15:37:04.408223"
"2018-07-03T15:37:04.413366","emg","-18","-11","-6","-6","8","1","0","-4","2018-07-03T15:37:04.412518"
"2018-07-03T15:37:04.413722","emg","20","-12","-5","0","1","10","5","7","2018-07-03T15:37:04.412910"
"2018-07-03T15:37:04.421747","acc","-1988","518","198","gyro","-75","-239","312","quat","9214","-4898","8978","8883","2018-07-03T15:37:04.420859"
"2018-07-03T15:37:04.422932","emg","-2","1","19","10","0","-4","-4","-4","2018-07-03T15:37:04.422186"
"2018-07-03T15:37:04.423283","emg","3","1","-10","-11","-3","-4","-1","-1","2018-07-03T15:37:04.422516"
"2018-07-03T15:37:04.428312","emg","-17","-11","12","5","2","-1","-1","-8","2018-07-03T15:37:04.427464"
"2018-07-03T15:37:04.428725","emg","-5","13","-30","3","0","4","-1","4","2018-07-03T15:37:04.427826"
"2018-07-03T15:37:04.444903","acc","-2095","664","253","gyro","-101","-283","384","quat","9186","-4847","8979","8939","2018-07-03T15:37:04.443783"
"2018-07-03T15:37:04.446046","emg","-10","1","9","-2","-5","-2","-1","2","2018-07-03T15:37:04.445291"
"2018-07-03T15:37:04.446394","emg","1","-1","47","6","6","0","-1","-1","2018-07-03T15:37:04.445632"
"2018-07-03T15:37:04.451339","emg","18","1","-68","-7","-9","-1","-1","4","2018-07-03T15:37:04.450272"
"2018-07-03T15:37:04.451672","emg","18","-4","-7","-8","-6","-4","0","-3","2018-07-03T15:37:04.450761"
"2018-07-03T15:37:04.467291","acc","-2041","601","279","gyro","-146","-344","400","quat","9163","-4797","8967","9003","2018-07-03T15:37:04.466053"
"2018-07-03T15:37:04.468617","emg","-15","13","-1","0","1","-2","0","-7","2018-07-03T15:37:04.467724"
"2018-07-03T15:37:04.469027","emg","-10","-7","41","3","-1","-1","-3","-1","2018-07-03T15:37:04.468108"
"2018-07-03T15:37:04.474356","emg","2","-1","-14","-5","-6","-5","-4","-1","2018-07-03T15:37:04.473166"
"2018-07-03T15:37:04.474763","emg","3","7","4","1","2","-1","0","1","2018-07-03T15:37:04.473700"
"2018-07-03T15:37:04.481712","acc","-1972","650","235","gyro","-95","-309","196","quat","9155","-4762","8956","9039","2018-07-03T15:37:04.480840"
"2018-07-03T15:37:04.482930","emg","5","-7","-21","6","1","-2","1","2","2018-07-03T15:37:04.482160"
"2018-07-03T15:37:04.483279","emg","0","1","16","-2","-1","-2","-1","-3","2018-07-03T15:37:04.482510"
"2018-07-03T15:37:04.488359","emg","-7","4","16","5","1","3","-2","-4","2018-07-03T15:37:04.487523"
"2018-07-03T15:37:04.488780","emg","-6","-1","-13","-5","0","0","0","-3","2018-07-03T15:37:04.487896"
"2018-07-03T15:37:04.504925","acc","-2045","682","303","gyro","-57","-221","-18","quat","9163","-4750","8945","9048","2018-07-03T15:37:04.503667"
"2018-07-03T15:37:04.506224","emg","3","-7","3","-1","0","3","1","-1","2018-07-03T15:37:04.505361"
"2018-07-03T15:37:04.506683","emg","-1","0","21","5","2","0","1","0","2018-07-03T15:37:04.505743"
"2018-07-03T15:37:04.511511","emg","3","-13","-64","-19","-6","-7","-4","1","2018-07-03T15:37:04.510322"
"2018-07-03T15:37:04.511897","emg","-13","0","4","2","-8","-5","-2","-1","2018-07-03T15:37:04.510865"
"2018-07-03T15:37:04.527268","acc","-1928","582","334","gyro","-101","-244","-153","quat","9189","-4756","8914","9049","2018-07-03T15:37:04.526050"
"2018-07-03T15:37:04.528576","emg","8","8","18","-3","0","0","-1","-3","2018-07-03T15:37:04.527714"
"2018-07-03T15:37:04.529024","emg","-2","-40","-34","-3","0","5","0","-2","2018-07-03T15:37:04.528101"
"2018-07-03T15:37:04.533583","emg","-26","-10","23","5","-2","-2","-1","3","2018-07-03T15:37:04.532645"
"2018-07-03T15:37:04.533995","emg","29","10","15","-17","-2","-2","-3","-4","2018-07-03T15:37:04.533059"
"2018-07-03T15:37:04.542893","acc","-1721","402","350","gyro","-133","-344","-226","quat","9238","-4767","8858","9049","2018-07-03T15:37:04.541839"
"2018-07-03T15:37:04.544123","emg","-3","-22","-10","-3","-1","-2","1","2","2018-07-03T15:37:04.543241"
"2018-07-03T15:37:04.544472","emg","1","8","-22","5","-3","-2","0","0","2018-07-03T15:37:04.543630"
"2018-07-03T15:37:04.549273","emg","-4","-2","23","-6","0","0","1","1","2018-07-03T15:37:04.548126"
"2018-07-03T15:37:04.549633","emg","-13","5","25","7","-1","-3","-1","-2","2018-07-03T15:37:04.548692"
"2018-07-03T15:37:04.565050","acc","-1600","323","345","gyro","-156","-451","-205","quat","9295","-4769","8787","9058","2018-07-03T15:37:04.563944"
"2018-07-03T15:37:04.566107","emg","2","-11","-23","-5","0","0","-1","-1","2018-07-03T15:37:04.565270"
"2018-07-03T15:37:04.566451","emg","2","7","-4","-2","0","-1","-1","-1","2018-07-03T15:37:04.565626"
"2018-07-03T15:37:04.571471","emg","3","-1","13","1","0","1","-1","0","2018-07-03T15:37:04.570372"
"2018-07-03T15:37:04.571826","emg","-7","2","-16","7","-1","-2","-1","-1","2018-07-03T15:37:04.570894"
"2018-07-03T15:37:04.587252","acc","-1478","345","376","gyro","-216","-649","-99","quat","9356","-4743","8696","9098","2018-07-03T15:37:04.586177"
"2018-07-03T15:37:04.588279","emg","5","2","9","2","-2","-2","-2","-2","2018-07-03T15:37:04.587465"
"2018-07-03T15:37:04.588671","emg","-5","4","0","-7","-1","0","-1","-1","2018-07-03T15:37:04.587806"
"2018-07-03T15:37:04.594048","emg","6","8","-7","2","2","1","2","0","2018-07-03T15:37:04.592950"
"2018-07-03T15:37:04.594408","emg","-5","-4","3","3","-2","-2","-2","-2","2018-07-03T15:37:04.593470"
"2018-07-03T15:37:04.602546","acc","-1413","340","412","gyro","-344","-936","14","quat","9426","-4688","8566","9176","2018-07-03T15:37:04.601500"
"2018-07-03T15:37:04.603612","emg","-4","-2","35","3","2","0","0","-1","2018-07-03T15:37:04.602782"
"2018-07-03T15:37:04.604030","emg","-1","1","-63","-4","-1","-1","-2","-1","2018-07-03T15:37:04.603124"
"2018-07-03T15:37:04.609185","emg","5","5","24","6","-2","-2","-1","1","2018-07-03T15:37:04.608064"
"2018-07-03T15:37:04.609544","emg","1","-6","-11","-7","0","0","-2","-1","2018-07-03T15:37:04.608627"
"2018-07-03T15:37:04.625127","acc","-1323","319","471","gyro","-510","-1287","44","quat","9517","-4609","8382","9292","2018-07-03T15:37:04.623923"
"2018-07-03T15:37:04.626213","emg","-1","-2","7","-4","-4","-2","-1","-1","2018-07-03T15:37:04.625365"
"2018-07-03T15:37:04.626559","emg","-1","3","-1","2","4","-1","0","-2","2018-07-03T15:37:04.625781"
"2018-07-03T15:37:04.631652","emg","4","2","18","3","0","3","0","1","2018-07-03T15:37:04.630566"
"2018-07-03T15:37:04.632023","emg","-9","-4","-24","0","-2","-2","-1","-1","2018-07-03T15:37:04.631153"
"2018-07-03T15:37:04.647091","acc","-1396","339","535","gyro","-625","-1687","-20","quat","9640","-4505","8140","9430","2018-07-03T15:37:04.646052"
"2018-07-03T15:37:04.648068","emg","-25","-1","4","3","0","0","-1","-1","2018-07-03T15:37:04.647292"
"2018-07-03T15:37:04.648369","emg","5","7","4","-3","0","-1","1","-2","2018-07-03T15:37:04.647655"
"2018-07-03T15:37:04.654020","emg","1","-2","-3","1","1","-6","-2","-2","2018-07-03T15:37:04.653019"
"2018-07-03T15:37:04.654332","emg","-4","-3","-3","-3","0","-2","-1","-3","2018-07-03T15:37:04.653502"
"2018-07-03T15:37:04.662586","acc","-1312","305","643","gyro","-762","-2034","-73","quat","9789","-4381","7841","9587","2018-07-03T15:37:04.661496"
"2018-07-03T15:37:04.663623","emg","2","5","9","-3","-2","-3","-2","0","2018-07-03T15:37:04.662805"
"2018-07-03T15:37:04.663973","emg","-8","-19","-23","7","-2","-1","-2","-1","2018-07-03T15:37:04.663154"
"2018-07-03T15:37:04.669169","emg","3","-11","2","-9","-3","-2","-1","1","2018-07-03T15:37:04.668055"
"2018-07-03T15:37:04.669551","emg","-15","3","5","-2","4","4","0","-3","2018-07-03T15:37:04.668625"
"2018-07-03T15:37:04.685434","acc","-1433","238","763","gyro","-800","-2350","-217","quat","9972","-4240","7491","9740","2018-07-03T15:37:04.684138"
"2018-07-03T15:37:04.686773","emg","8","4","-10","21","0","-1","0","0","2018-07-03T15:37:04.685882"
"2018-07-03T15:37:04.687174","emg","-3","9","27","-13","4","1","-1","-2","2018-07-03T15:37:04.686285"
"2018-07-03T15:37:04.691575","emg","2","0","-61","-5","-6","-3","-1","-1","2018-07-03T15:37:04.690388"
"2018-07-03T15:37:04.691959","emg","1","-12","-7","2","-4","-4","-2","2","2018-07-03T15:37:04.690925"
"2018-07-03T15:37:04.707232","acc","-1443","227","844","gyro","-873","-2711","-422","quat","10194","-4082","7079","9885","2018-07-03T15:37:04.706171"
"2018-07-03T15:37:04.708222","emg","7","11","-6","-14","-1","-1","-1","-2","2018-07-03T15:37:04.707461"
"2018-07-03T15:37:04.708566","emg","-4","-22","13","7","0","1","1","0","2018-07-03T15:37:04.707790"
"2018-07-03T15:37:04.713851","emg","0","14","24","11","-2","-1","-3","-1","2018-07-03T15:37:04.712728"
"2018-07-03T15:37:04.714208","emg","-6","-5","-17","-14","2","-1","-1","-2","2018-07-03T15:37:04.713308"
"2018-07-03T15:37:04.722655","acc","-1438","319","923","gyro","-894","-3128","-558","quat","10449","-3886","6607","10024","2018-07-03T15:37:04.721525"
"2018-07-03T15:37:04.723707","emg","2","-4","-13","-20","-6","-2","-1","0","2018-07-03T15:37:04.722883"
"2018-07-03T15:37:04.724053","emg","1","26","-3","19","1","1","0","1","2018-07-03T15:37:04.723284"
"2018-07-03T15:37:04.736464","emg","-5","-44","-16","-9","2","0","0","-1","2018-07-03T15:37:04.735442"
"2018-07-03T15:37:04.736856","emg","-1","-34","1","1","-4","-3","-2","-3","2018-07-03T15:37:04.735968"
"2018-07-03T15:37:04.744761","acc","-1334","334","1062","gyro","-882","-3486","-506","quat","10709","-3638","6088","10169","2018-07-03T15:37:04.743818"
"2018-07-03T15:37:04.746253","emg","-6","14","14","4","6","1","-1","-3","2018-07-03T15:37:04.745446"
"2018-07-03T15:37:04.746575","emg","15","-1","3","-12","-5","-2","-1","-1","2018-07-03T15:37:04.745869"
"2018-07-03T15:37:04.751205","emg","4","26","0","5","4","3","0","0","2018-07-03T15:37:04.750167"
"2018-07-03T15:37:04.751518","emg","-5","10","2","0","0","-2","0","1","2018-07-03T15:37:04.750706"
"2018-07-03T15:37:04.767086","acc","-1337","162","1140","gyro","-896","-3796","-555","quat","10977","-3359","5519","10304","2018-07-03T15:37:04.765885"
"2018-07-03T15:37:04.768115","emg","2","-8","-21","5","-1","-2","-1","1","2018-07-03T15:37:04.767152"
"2018-07-03T15:37:04.768850","emg","-5","18","-7","-10","-3","-3","-2","-1","2018-07-03T15:37:04.767656"
"2018-07-03T15:37:04.773233","emg","1","-17","25","1","-4","-3","-3","-3","2018-07-03T15:37:04.772483"
"2018-07-03T15:37:04.773508","emg","-2","-13","-8","-2","1","1","0","-1","2018-07-03T15:37:04.772919"
"2018-07-03T15:37:04.781692","acc","-1249","66","1317","gyro","-982","-4023","-641","quat","11244","-3063","4898","10421","2018-07-03T15:37:04.780880"
"2018-07-03T15:37:04.782677","emg","-2","1","4","2","3","1","-1","-3","2018-07-03T15:37:04.781968"
"2018-07-03T15:37:04.782977","emg","-4","-7","-18","-7","-4","-1","0","-1","2018-07-03T15:37:04.782310"
"2018-07-03T15:37:04.796571","emg","-6","5","-13","-2","0","-3","-1","-2","2018-07-03T15:37:04.795508"
"2018-07-03T15:37:04.796923","emg","4","18","15","5","4","1","-2","0","2018-07-03T15:37:04.796091"
"2018-07-03T15:37:04.804827","acc","-1211","63","1385","gyro","-894","-4223","-770","quat","11514","-2736","4249","10502","2018-07-03T15:37:04.803767"
"2018-07-03T15:37:04.805765","emg","-7","-12","-2","-2","-5","-2","0","-1","2018-07-03T15:37:04.805042"
"2018-07-03T15:37:04.806064","emg","11","28","7","6","-1","-3","-1","1","2018-07-03T15:37:04.805399"
"2018-07-03T15:37:04.811261","emg","-7","-65","-9","-10","-4","0","-1","-4","2018-07-03T15:37:04.810234"
"2018-07-03T15:37:04.811618","emg","-9","-16","0","-1","-1","0","-4","-5","2018-07-03T15:37:04.810779"
"2018-07-03T15:37:04.827165","acc","-1017","168","1575","gyro","-761","-4264","-599","quat","11744","-2369","3606","10577","2018-07-03T15:37:04.826032"
"2018-07-03T15:37:04.828351","emg","7","18","-7","4","1","1","1","0","2018-07-03T15:37:04.827495"
"2018-07-03T15:37:04.828740","emg","1","12","20","0","-4","-2","-1","0","2018-07-03T15:37:04.827924"
"2018-07-03T15:37:04.834052","emg","6","42","0","1","0","-3","0","1","2018-07-03T15:37:04.833000"
"2018-07-03T15:37:04.834410","emg","-2","-15","-1","-6","-5","-3","-1","-1","2018-07-03T15:37:04.833514"
"2018-07-03T15:37:04.842542","acc","-875","164","1511","gyro","-541","-4116","-518","quat","11938","-1983","3004","10627","2018-07-03T15:37:04.841447"
"2018-07-03T15:37:04.843586","emg","-11","38","9","-1","-5","-2","-1","1","2018-07-03T15:37:04.842762"
"2018-07-03T15:37:04.843933","emg","22","4","29","9","3","5","0","-1","2018-07-03T15:37:04.843112"
"2018-07-03T15:37:04.856710","emg","1","-30","-39","1","-2","0","0","0","2018-07-03T15:37:04.855555"
"2018-07-03T15:37:04.857070","emg","-4","9","-6","6","0","1","0","-3","2018-07-03T15:37:04.856086"
"2018-07-03T15:37:04.865095","acc","-921","197","1855","gyro","-202","-3858","-689","quat","12128","-1585","2466","10617","2018-07-03T15:37:04.863995"
"2018-07-03T15:37:04.866191","emg","12","44","18","1","0","1","1","3","2018-07-03T15:37:04.865362"
"2018-07-03T15:37:04.866536","emg","-6","-70","0","-18","-9","-5","-1","-2","2018-07-03T15:37:04.865719"
"2018-07-03T15:37:04.871330","emg","5","52","17","4","3","2","-2","-1","2018-07-03T15:37:04.870289"
"2018-07-03T15:37:04.871730","emg","6","-6","1","4","2","0","1","0","2018-07-03T15:37:04.870748"
"2018-07-03T15:37:04.887092","acc","-850","55","1814","gyro","-165","-3704","-802","quat","12307","-1204","1947","10570","2018-07-03T15:37:04.886008"
"2018-07-03T15:37:04.888323","emg","6","1","-28","6","4","2","1","0","2018-07-03T15:37:04.887476"
"2018-07-03T15:37:04.888725","emg","-13","20","6","-3","-3","-3","-1","0","2018-07-03T15:37:04.887894"
"2018-07-03T15:37:04.894095","emg","1","17","19","-8","-2","-2","-1","0","2018-07-03T15:37:04.893165"
"2018-07-03T15:37:04.894415","emg","2","-8","-19","-9","-12","-4","-1","-1","2018-07-03T15:37:04.893614"
"2018-07-03T15:37:04.901941","acc","-606","128","1958","gyro","-82","-3546","-865","quat","12470","-826","1454","10493","2018-07-03T15:37:04.901002"
"2018-07-03T15:37:04.902870","emg","7","28","13","-3","4","-2","0","3","2018-07-03T15:37:04.902137"
"2018-07-03T15:37:04.903173","emg","-21","-39","-15","7","12","2","1","-1","2018-07-03T15:37:04.902453"
"2018-07-03T15:37:04.916687","emg","2","23","13","9","0","0","0","0","2018-07-03T15:37:04.915475"
"2018-07-03T15:37:04.917068","emg","-3","-26","2","7","5","-1","0","0","2018-07-03T15:37:04.915993"
"2018-07-03T15:37:04.924959","acc","-357","135","2178","gyro","325","-3308","-1030","quat","12634","-419","1033","10370","2018-07-03T15:37:04.923769"
"2018-07-03T15:37:04.926284","emg","4","-58","-95","-18","-9","-5","-2","-4","2018-07-03T15:37:04.925386"
"2018-07-03T15:37:04.926743","emg","-16","-24","68","-22","-13","-5","-4","-4","2018-07-03T15:37:04.925849"
"2018-07-03T15:37:04.931323","emg","2","21","-11","0","1","0","-1","2","2018-07-03T15:37:04.930249"
"2018-07-03T15:37:04.931665","emg","-15","-2","-12","2","3","3","1","0","2018-07-03T15:37:04.930746"
"2018-07-03T15:37:04.947293","acc","-273","139","2016","gyro","66","-3136","-953","quat","12770","-67","607","10246","2018-07-03T15:37:04.946081"
"2018-07-03T15:37:04.948575","emg","30","31","91","34","4","2","1","3","2018-07-03T15:37:04.947730"
"2018-07-03T15:37:04.949036","emg","4","22","-85","3","14","2","0","-2","2018-07-03T15:37:04.948096"
"2018-07-03T15:37:04.954357","emg","1","20","36","-6","-8","-2","2","0","2018-07-03T15:37:04.953176"
"2018-07-03T15:37:04.954749","emg","-12","20","43","-1","0","-5","-4","-6","2018-07-03T15:37:04.953698"
"2018-07-03T15:37:04.962578","acc","-69","324","2100","gyro","-408","-3025","-707","quat","12861","213","145","10146","2018-07-03T15:37:04.961465"
"2018-07-03T15:37:04.963703","emg","-30","-119","-56","-16","-9","-4","-4","-7","2018-07-03T15:37:04.962958"
"2018-07-03T15:37:04.964048","emg","1","69","45","-7","-4","0","0","-1","2018-07-03T15:37:04.963283"
"2018-07-03T15:37:04.976412","emg","-2","36","10","6","0","-1","-1","-1","2018-07-03T15:37:04.975411"
"2018-07-03T15:37:04.976807","emg","6","-36","-8","-5","-3","-4","3","6","2018-07-03T15:37:04.975939"
"2018-07-03T15:37:04.985133","acc","62","171","2089","gyro","-755","-2827","-541","quat","12920","421","-330","10060","2018-07-03T15:37:04.983868"
"2018-07-03T15:37:04.986595","emg","-6","30","28","-4","4","0","-7","-5","2018-07-03T15:37:04.985593"
"2018-07-03T15:37:04.987031","emg","-12","-47","-26","8","-5","1","-2","-11","2018-07-03T15:37:04.986077"
"2018-07-03T15:37:05.006713","emg","0","-33","-48","-6","1","-1","-2","-2","2018-07-03T15:37:05.005513"
"2018-07-03T15:37:05.007152","emg","1","17","11","0","-5","1","0","1","2018-07-03T15:37:05.006159"
"2018-07-03T15:37:05.008767","acc","244","-83","2242","gyro","-334","-2605","-430","quat","12954","659","-733","9982","2018-07-03T15:37:05.007938"
"2018-07-03T15:37:05.010265","emg","-5","-47","-30","-3","-3","-7","-1","0","2018-07-03T15:37:05.009175"
"2018-07-03T15:37:05.010726","emg","3","28","29","-4","4","1","-1","-1","2018-07-03T15:37:05.009812"
"2018-07-03T15:37:05.013542","emg","-10","-21","7","-7","1","-1","1","-2","2018-07-03T15:37:05.012686"
"2018-07-03T15:37:05.013893","emg","-4","-12","-10","10","0","-3","-4","-4","2018-07-03T15:37:05.013108"
"2018-07-03T15:37:05.021668","acc","430","-3","2262","gyro","107","-2311","-547","quat","12990","930","-1044","9886","2018-07-03T15:37:05.020916"
"2018-07-03T15:37:05.022500","emg","11","33","-16","12","5","4","4","4","2018-07-03T15:37:05.021926"
"2018-07-03T15:37:05.022739","emg","6","29","8","-13","-12","-2","1","5","2018-07-03T15:37:05.022190"
"2018-07-03T15:37:05.035250","emg","-22","-60","19","-8","3","-4","-5","-7","2018-07-03T15:37:05.034702"
"2018-07-03T15:37:05.035419","emg","21","98","11","3","7","3","0","3","2018-07-03T15:37:05.034945"
"2018-07-03T15:37:05.043716","acc","613","184","2088","gyro","-4","-2090","-612","quat","13028","1166","-1335","9774","2018-07-03T15:37:05.043029"
"2018-07-03T15:37:05.044321","emg","19","-57","-85","-12","-8","-3","-4","-4","2018-07-03T15:37:05.043894"
"2018-07-03T15:37:05.044484","emg","-18","-53","-7","7","0","-4","-1","-1","2018-07-03T15:37:05.044101"
"2018-07-03T15:37:05.050602","emg","9","22","-29","1","-4","0","0","1","2018-07-03T15:37:05.049942"
"2018-07-03T15:37:05.050810","emg","14","45","77","-15","-7","0","4","2","2018-07-03T15:37:05.050244"
"2018-07-03T15:37:05.066325","acc","722","285","1951","gyro","-626","-1830","-420","quat","13051","1286","-1656","9679","2018-07-03T15:37:05.065565"
"2018-07-03T15:37:05.067213","emg","-8","50","-6","16","2","1","-7","-3","2018-07-03T15:37:05.066569"
"2018-07-03T15:37:05.067491","emg","3","-26","-10","-10","-1","0","-5","7","2018-07-03T15:37:05.066885"
"2018-07-03T15:37:05.074075","emg","3","-10","-17","5","-1","-2","2","-2","2018-07-03T15:37:05.073000"
"2018-07-03T15:37:05.074415","emg","-4","-18","-35","2","0","1","1","-8","2018-07-03T15:37:05.073489"
"2018-07-03T15:37:05.082471","acc","794","44","1991","gyro","-695","-1673","-133","quat","13042","1370","-1968","9622","2018-07-03T15:37:05.081388"
"2018-07-03T15:37:05.083600","emg","-10","10","37","-3","5","0","2","1","2018-07-03T15:37:05.082851"
"2018-07-03T15:37:05.083944","emg","3","-14","-13","-5","-3","0","1","1","2018-07-03T15:37:05.083186"
"2018-07-03T15:37:05.096795","emg","1","20","36","9","2","1","-5","0","2018-07-03T15:37:05.095546"
"2018-07-03T15:37:05.097180","emg","-10","-35","-35","-7","-7","-6","-1","2","2018-07-03T15:37:05.096102"
"2018-07-03T15:37:05.105162","acc","936","-198","2082","gyro","-430","-1385","-182","quat","13032","1458","-2233","9564","2018-07-03T15:37:05.103914"
"2018-07-03T15:37:05.106473","emg","1","15","-2","-5","2","0","0","2","2018-07-03T15:37:05.105611"
"2018-07-03T15:37:05.106865","emg","-12","-7","5","0","-1","-2","0","-4","2018-07-03T15:37:05.105993"
"2018-07-03T15:37:05.110823","emg","-2","-19","-21","3","2","0","-2","-2","2018-07-03T15:37:05.109987"
"2018-07-03T15:37:05.111177","emg","10","25","5","3","0","1","-1","1","2018-07-03T15:37:05.110347"
"2018-07-03T15:37:05.127902","acc","993","-208","2098","gyro","-96","-1081","-259","quat","13028","1562","-2418","9507","2018-07-03T15:37:05.126697"
"2018-07-03T15:37:05.129238","emg","-15","-49","41","-3","-6","-4","-3","-5","2018-07-03T15:37:05.128342"
"2018-07-03T15:37:05.129642","emg","9","40","-46","4","3","-1","-1","1","2018-07-03T15:37:05.128750"
"2018-07-03T15:37:05.133484","emg","-1","-23","52","-14","-7","-3","-2","-3","2018-07-03T15:37:05.132493"
"2018-07-03T15:37:05.133839","emg","-3","8","-57","-6","-4","-3","-1","-2","2018-07-03T15:37:05.132949"
"2018-07-03T15:37:05.142290","acc","942","-8","1924","gyro","3","-773","-331","quat","13039","1664","-2534","9445","2018-07-03T15:37:05.141231"
"2018-07-03T15:37:05.143442","emg","-15","-55","67","-8","-4","-1","-1","-4","2018-07-03T15:37:05.142677"
"2018-07-03T15:37:05.143787","emg","3","32","-59","12","-1","0","-1","3","2018-07-03T15:37:05.143027"
"2018-07-03T15:37:05.156427","emg","37","-11","9","3","-1","0","2","6","2018-07-03T15:37:05.155365"
"2018-07-03T15:37:05.156823","emg","0","-40","-26","-1","1","0","-7","-16","2018-07-03T15:37:05.155861"
"2018-07-03T15:37:05.164931","acc","850","135","1732","gyro","-162","-667","-235","quat","13048","1736","-2642","9390","2018-07-03T15:37:05.163799"
"2018-07-03T15:37:05.166062","emg","4","17","10","-4","-2","-2","9","9","2018-07-03T15:37:05.165311"
"2018-07-03T15:37:05.166416","emg","-1","12","19","-3","-2","-4","0","-16","2018-07-03T15:37:05.165647"
"2018-07-03T15:37:05.171310","emg","-4","30","7","-3","0","-2","2","7","2018-07-03T15:37:05.170249"
"2018-07-03T15:37:05.171643","emg","0","-1","15","7","4","1","1","5","2018-07-03T15:37:05.170741"
"2018-07-03T15:37:05.187218","acc","921","74","1614","gyro","-508","-719","-64","quat","13041","1760","-2805","9348","2018-07-03T15:37:05.186004"
"2018-07-03T15:37:05.188516","emg","4","-3","-18","-2","1","0","6","57","2018-07-03T15:37:05.187649"
"2018-07-03T15:37:05.188966","emg","-6","-12","0","0","-2","0","-10","-77","2018-07-03T15:37:05.188031"
"2018-07-03T15:37:05.193660","emg","-7","21","-1","3","1","0","-7","-16","2018-07-03T15:37:05.192567"
"2018-07-03T15:37:05.194077","emg","-2","-12","-2","-1","-4","-2","19","-1","2018-07-03T15:37:05.193114"
"2018-07-03T15:37:05.202452","acc","901","-181","1798","gyro","-750","-555","-7","quat","13035","1707","-2972","9314","2018-07-03T15:37:05.201364"
