"2018-07-03T15:32:46.465695","emg","5","0","-1","-2","-1","16","0","-8","2018-07-03T15:32:46.464685"
"2018-07-03T15:32:46.465989","emg","-9","3","-1","-1","0","-1","4","3","2018-07-03T15:32:46.465200"
"2018-07-03T15:32:46.473682","acc","875","-125","1677","gyro","-24","-8","-17","quat","15254","594","-4013","4391","2018-07-03T15:32:46.472552"
"2018-07-03T15:32:46.480081","emg","-3","0","-1","0","-2","-11","2","-1","2018-07-03T15:32:46.479240"
"2018-07-03T15:32:46.480393","emg","1","-6","-2","-1","-1","7","0","-11","2018-07-03T15:32:46.479622"
"2018-07-03T15:32:46.488046","emg","3","10","-1","-1","0","8","-3","1","2018-07-03T15:32:46.487120"
"2018-07-03T15:32:46.488364","emg","-3","1","1","-2","0","-6","-4","2","2018-07-03T15:32:46.487617"
"2018-07-03T15:32:46.496396","acc","914","-148","1653","gyro","-7","-15","-4","quat","15254","594","-4013","4391","2018-07-03T15:32:46.495265"
"2018-07-03T15:32:46.502708","emg","19","-1","-2","-3","-2","4","2","1","2018-07-03T15:32:46.501766"
"2018-07-03T15:32:46.503031","emg","1","1","0","-1","0","-7","1","-2","2018-07-03T15:32:46.502211"
"2018-07-03T15:32:46.510740","emg","1","-3","-1","0","-1","-8","-2","3","2018-07-03T15:32:46.509937"
"2018-07-03T15:32:46.511042","emg","-1","1","-1","-1","-2","5","0","12","2018-07-03T15:32:46.510318"
"2018-07-03T15:32:46.512224","acc","915","-135","1662","gyro","13","1","-14","quat","15254","593","-4014","4391","2018-07-03T15:32:46.511393"
"2018-07-03T15:32:46.517670","emg","-7","-6","-1","-1","-2","-9","-3","-1","2018-07-03T15:32:46.516823"
"2018-07-03T15:32:46.517982","emg","5","-2","-4","0","1","7","0","-3","2018-07-03T15:32:46.517221"
"2018-07-03T15:32:46.533980","emg","-13","4","1","0","0","-1","-1","-9","2018-07-03T15:32:46.532991"
"2018-07-03T15:32:46.534295","emg","-4","-2","-1","-1","-1","-6","0","-1","2018-07-03T15:32:46.533474"
"2018-07-03T15:32:46.535205","acc","920","-132","1669","gyro","-16","8","-6","quat","15254","593","-4014","4391","2018-07-03T15:32:46.534533"
"2018-07-03T15:32:46.540066","emg","-1","-1","-1","0","-2","2","1","4","2018-07-03T15:32:46.539251"
"2018-07-03T15:32:46.540375","emg","0","2","0","0","0","2","1","-7","2018-07-03T15:32:46.539635"
"2018-07-03T15:32:46.548145","emg","4","-5","-2","-1","-1","-3","-2","5","2018-07-03T15:32:46.547165"
"2018-07-03T15:32:46.548463","emg","-3","-10","-3","-2","-2","-1","0","-1","2018-07-03T15:32:46.547647"
"2018-07-03T15:32:46.555201","acc","906","-119","1658","gyro","-10","5","-17","quat","15255","593","-4014","4388","2018-07-03T15:32:46.554427"
"2018-07-03T15:32:46.562914","emg","-1","5","-1","1","-1","-2","0","0","2018-07-03T15:32:46.561931"
"2018-07-03T15:32:46.563224","emg","0","3","0","-2","-1","2","-1","-1","2018-07-03T15:32:46.562424"
"2018-07-03T15:32:46.571073","emg","-13","-4","-2","0","1","-5","-1","-3","2018-07-03T15:32:46.570083"
"2018-07-03T15:32:46.571387","emg","3","1","0","-1","0","2","2","1","2018-07-03T15:32:46.570571"
"2018-07-03T15:32:46.572293","acc","921","-122","1658","gyro","-16","-2","-17","quat","15255","591","-4017","4384","2018-07-03T15:32:46.571617"
"2018-07-03T15:32:46.578258","emg","-7","-3","1","1","-2","-1","0","-2","2018-07-03T15:32:46.577273"
"2018-07-03T15:32:46.578573","emg","5","8","2","1","-1","-3","-3","-3","2018-07-03T15:32:46.577759"
"2018-07-03T15:32:46.594133","emg","-2","-4","-8","-13","-3","-1","-2","0","2018-07-03T15:32:46.593039"
"2018-07-03T15:32:46.594501","emg","-15","19","5","9","0","-1","1","-2","2018-07-03T15:32:46.593560"
"2018-07-03T15:32:46.595523","acc","912","-120","1675","gyro","-5","-7","-24","quat","15256","592","-4018","4380","2018-07-03T15:32:46.594760"
"2018-07-03T15:32:46.600571","emg","-2","29","22","-3","-4","0","1","4","2018-07-03T15:32:46.599461"
"2018-07-03T15:32:46.601027","emg","-16","-55","-36","-16","-9","-2","-5","-6","2018-07-03T15:32:46.599981"
"2018-07-03T15:32:46.608247","emg","5","4","50","45","17","-3","0","-2","2018-07-03T15:32:46.607146"
"2018-07-03T15:32:46.608667","emg","6","-3","-10","-18","-11","-1","0","1","2018-07-03T15:32:46.607672"
"2018-07-03T15:32:46.615612","acc","857","9","1927","gyro","153","19","-15","quat","15261","626","-3989","4382","2018-07-03T15:32:46.614596"
"2018-07-03T15:32:46.623056","emg","2","-10","-41","11","33","3","-1","3","2018-07-03T15:32:46.621974"
"2018-07-03T15:32:46.623417","emg","-2","36","20","-31","-2","0","-1","-3","2018-07-03T15:32:46.622485"
"2018-07-03T15:32:46.631317","emg","-8","-100","-12","-39","-21","3","3","0","2018-07-03T15:32:46.630216"
"2018-07-03T15:32:46.631682","emg","12","26","25","28","55","0","2","5","2018-07-03T15:32:46.630752"
"2018-07-03T15:32:46.632795","acc","722","256","1973","gyro","323","-193","-62","quat","15264","716","-3968","4380","2018-07-03T15:32:46.631960"
"2018-07-03T15:32:46.638217","emg","-27","-79","-74","1","-10","-4","-7","-13","2018-07-03T15:32:46.637240"
"2018-07-03T15:32:46.638532","emg","-13","-6","10","0","-8","-4","-2","-8","2018-07-03T15:32:46.637721"
"2018-07-03T15:32:46.654028","emg","0","14","-56","-58","-101","-13","-4","0","2018-07-03T15:32:46.652949"
"2018-07-03T15:32:46.654401","emg","8","21","16","-5","12","-7","-1","1","2018-07-03T15:32:46.653463"
"2018-07-03T15:32:46.655431","acc","653","552","2032","gyro","-748","-702","234","quat","15243","667","-4068","4369","2018-07-03T15:32:46.654667"
"2018-07-03T15:32:46.661124","emg","5","-19","40","62","102","21","4","4","2018-07-03T15:32:46.659813"
"2018-07-03T15:32:46.661527","emg","12","6","13","-102","-50","9","-1","8","2018-07-03T15:32:46.660428"
"2018-07-03T15:32:46.668230","emg","7","26","0","126","38","4","27","3","2018-07-03T15:32:46.667085"
"2018-07-03T15:32:46.668616","emg","6","-10","2","-7","-22","-2","-24","5","2018-07-03T15:32:46.667659"
"2018-07-03T15:32:46.675831","acc","841","353","2090","gyro","-1998","-832","679","quat","15187","355","-4294","4383","2018-07-03T15:32:46.674765"
"2018-07-03T15:32:46.682668","emg","15","40","-21","-21","79","0","37","5","2018-07-03T15:32:46.681806"
"2018-07-03T15:32:46.682987","emg","-3","-12","-8","105","-8","5","22","0","2018-07-03T15:32:46.682215"
"2018-07-03T15:32:46.691184","emg","3","22","37","-80","-31","2","17","-9","2018-07-03T15:32:46.690189"
"2018-07-03T15:32:46.691509","emg","-59","-30","-28","83","-88","-19","2","-33","2018-07-03T15:32:46.690696"
"2018-07-03T15:32:46.692432","acc","1830","-423","1628","gyro","-2886","365","661","quat","15171","-168","-4390","4355","2018-07-03T15:32:46.691767"
"2018-07-03T15:32:46.698240","emg","-14","-10","55","-90","16","-1","-37","-8","2018-07-03T15:32:46.697236"
"2018-07-03T15:32:46.698556","emg","-2","8","32","-58","-11","17","12","9","2018-07-03T15:32:46.697725"
"2018-07-03T15:32:46.714178","emg","28","2","-54","-29","57","-9","57","4","2018-07-03T15:32:46.713083"
"2018-07-03T15:32:46.714548","emg","22","11","-48","-30","-68","-9","-10","14","2018-07-03T15:32:46.713605"
"2018-07-03T15:32:46.715581","acc","2011","-959","2310","gyro","-1835","1767","493","quat","15218","-583","-4200","4342","2018-07-03T15:32:46.714803"
"2018-07-03T15:32:46.720965","emg","-18","2","-39","-91","2","-15","45","-17","2018-07-03T15:32:46.719787"
"2018-07-03T15:32:46.721329","emg","-37","-29","-10","48","-49","-23","-102","-25","2018-07-03T15:32:46.720314"
"2018-07-03T15:32:46.728315","emg","6","24","48","83","114","7","22","3","2018-07-03T15:32:46.727241"
"2018-07-03T15:32:46.728719","emg","5","-14","35","-119","38","19","-8","10","2018-07-03T15:32:46.727761"
"2018-07-03T15:32:46.735828","acc","1411","-1122","2246","gyro","-571","2547","794","quat","15283","-844","-3808","4431","2018-07-03T15:32:46.734752"
"2018-07-03T15:32:46.743136","emg","29","25","9","11","-113","-18","27","19","2018-07-03T15:32:46.742078"
"2018-07-03T15:32:46.743502","emg","29","19","-31","-128","10","20","28","13","2018-07-03T15:32:46.742602"
"2018-07-03T15:32:46.751394","emg","-16","-18","-8","103","-64","-9","-51","-6","2018-07-03T15:32:46.750298"
"2018-07-03T15:32:46.751761","emg","-18","0","2","-71","70","14","44","-2","2018-07-03T15:32:46.750827"
"2018-07-03T15:32:46.752842","acc","697","-695","2254","gyro","-740","3070","1175","quat","15337","-1167","-3316","4566","2018-07-03T15:32:46.752023"
"2018-07-03T15:32:46.758474","emg","10","16","-10","15","-66","-33","-51","6","2018-07-03T15:32:46.757369"
"2018-07-03T15:32:46.758866","emg","-18","-32","3","1","64","38","65","-10","2018-07-03T15:32:46.757895"
"2018-07-03T15:32:46.774187","emg","-4","-6","-40","-61","-115","-3","-80","-11","2018-07-03T15:32:46.773090"
"2018-07-03T15:32:46.774551","emg","-14","0","52","35","45","-19","113","4","2018-07-03T15:32:46.773616"
"2018-07-03T15:32:46.775584","acc","157","-909","2331","gyro","-821","3580","1631","quat","15360","-1548","-2725","4761","2018-07-03T15:32:46.774817"
"2018-07-03T15:32:46.780941","emg","-4","8","-9","-118","-128","-3","-21","-5","2018-07-03T15:32:46.779787"
"2018-07-03T15:32:46.781307","emg","-4","31","27","82","92","-19","-97","-25","2018-07-03T15:32:46.780329"
"2018-07-03T15:32:46.788267","emg","0","15","22","72","119","14","35","-2","2018-07-03T15:32:46.787145"
"2018-07-03T15:32:46.788694","emg","14","-6","31","67","-11","29","22","9","2018-07-03T15:32:46.787713"
"2018-07-03T15:32:46.795870","acc","12","-1091","2196","gyro","-274","3978","2064","quat","15347","-1872","-2030","5028","2018-07-03T15:32:46.794803"
"2018-07-03T15:32:46.803120","emg","32","3","-22","26","-8","10","41","13","2018-07-03T15:32:46.801923"
"2018-07-03T15:32:46.803503","emg","-27","-29","-29","0","-33","-26","37","7","2018-07-03T15:32:46.802465"
"2018-07-03T15:32:46.811420","emg","-19","-1","-21","-109","-44","-5","-13","-2","2018-07-03T15:32:46.810320"
"2018-07-03T15:32:46.811787","emg","-2","-28","-22","-15","-16","-11","-42","-5","2018-07-03T15:32:46.810842"
"2018-07-03T15:32:46.812874","acc","-243","-827","1902","gyro","-757","4170","2511","quat","15263","-2287","-1314","5340","2018-07-03T15:32:46.812057"
"2018-07-03T15:32:46.818448","emg","22","-3","17","51","22","7","19","7","2018-07-03T15:32:46.817361"
"2018-07-03T15:32:46.818808","emg","9","6","-18","0","5","-6","27","5","2018-07-03T15:32:46.817891"
"2018-07-03T15:32:46.834180","emg","-24","-8","24","-28","-26","-4","15","1","2018-07-03T15:32:46.833099"
"2018-07-03T15:32:46.834546","emg","26","5","27","-8","-8","9","-7","-3","2018-07-03T15:32:46.833617"
"2018-07-03T15:32:46.835576","acc","-714","-885","1873","gyro","-902","4343","3115","quat","15093","-2740","-553","5729","2018-07-03T15:32:46.834802"
"2018-07-03T15:32:46.840964","emg","-30","8","-1","48","41","6","-21","-4","2018-07-03T15:32:46.839825"
"2018-07-03T15:32:46.841329","emg","22","6","-13","3","-47","-10","-35","1","2018-07-03T15:32:46.840352"
"2018-07-03T15:32:46.848336","emg","2","-3","4","-5","14","-11","-7","-9","2018-07-03T15:32:46.847212"
"2018-07-03T15:32:46.848747","emg","-6","7","37","-19","6","-13","-6","-3","2018-07-03T15:32:46.847736"
"2018-07-03T15:32:46.855857","acc","-933","-1226","1707","gyro","361","4254","3049","quat","14910","-2978","269","6096","2018-07-03T15:32:46.854781"
"2018-07-03T15:32:46.862991","emg","-9","-50","-45","-19","-5","21","16","-10","2018-07-03T15:32:46.861911"
"2018-07-03T15:32:46.863402","emg","-6","10","-12","30","34","12","44","13","2018-07-03T15:32:46.862424"
"2018-07-03T15:32:46.871335","emg","27","24","44","-20","-4","7","14","11","2018-07-03T15:32:46.870241"
"2018-07-03T15:32:46.871701","emg","-1","1","33","5","-11","3","-34","-2","2018-07-03T15:32:46.870768"
"2018-07-03T15:32:46.872760","acc","-668","-977","1601","gyro","1262","4195","3073","quat","14708","-3049","1133","6443","2018-07-03T15:32:46.871953"
"2018-07-03T15:32:46.878272","emg","-16","-2","34","-7","24","-16","-17","-6","2018-07-03T15:32:46.877273"
"2018-07-03T15:32:46.878590","emg","-5","-19","-57","7","-16","-6","0","0","2018-07-03T15:32:46.877768"
"2018-07-03T15:32:46.894195","emg","10","-8","-24","-7","22","2","-20","4","2018-07-03T15:32:46.893098"
"2018-07-03T15:32:46.894566","emg","13","6","-41","-17","-21","-6","-11","-1","2018-07-03T15:32:46.893627"
"2018-07-03T15:32:46.895596","acc","-748","-466","1454","gyro","1036","4009","3067","quat","14454","-3125","1950","6778","2018-07-03T15:32:46.894834"
"2018-07-03T15:32:46.900684","emg","-5","-6","66","22","9","10","8","-3","2018-07-03T15:32:46.899484"
"2018-07-03T15:32:46.901074","emg","4","23","2","6","-6","-5","38","3","2018-07-03T15:32:46.899995"
"2018-07-03T15:32:46.908442","emg","23","31","33","-26","-18","-1","28","0","2018-07-03T15:32:46.907288"
"2018-07-03T15:32:46.908875","emg","-40","-6","-51","-2","12","2","-48","-8","2018-07-03T15:32:46.907807"
"2018-07-03T15:32:46.915766","acc","-860","-238","1381","gyro","826","3693","2923","quat","14167","-3201","2693","7086","2018-07-03T15:32:46.914688"
"2018-07-03T15:32:46.923129","emg","11","-12","-6","16","-6","-7","7","0","2018-07-03T15:32:46.921965"
"2018-07-03T15:32:46.923506","emg","13","10","13","-6","-7","7","4","-2","2018-07-03T15:32:46.922479"
"2018-07-03T15:32:46.931419","emg","-17","-6","31","-21","5","-1","21","0","2018-07-03T15:32:46.930248"
"2018-07-03T15:32:46.931991","emg","10","-2","-30","15","0","-9","-14","1","2018-07-03T15:32:46.930780"
"2018-07-03T15:32:46.933358","acc","-719","-395","1257","gyro","219","3518","2855","quat","13834","-3353","3346","7388","2018-07-03T15:32:46.932487"
"2018-07-03T15:32:46.938463","emg","-2","-5","7","17","-1","6","-8","-4","2018-07-03T15:32:46.937241"
"2018-07-03T15:32:46.938842","emg","0","-7","-53","-11","6","11","-33","-3","2018-07-03T15:32:46.937824"
"2018-07-03T15:32:46.954168","emg","41","2","9","-2","-11","-11","-2","8","2018-07-03T15:32:46.953004"
"2018-07-03T15:32:46.954733","emg","-1","20","51","-21","-7","3","1","-3","2018-07-03T15:32:46.953520"
"2018-07-03T15:32:46.956000","acc","-854","-455","1172","gyro","-142","3216","2693","quat","13481","-3536","3911","7672","2018-07-03T15:32:46.955240"
"2018-07-03T15:32:46.960662","emg","-11","5","-39","13","5","1","-4","-1","2018-07-03T15:32:46.959502"
"2018-07-03T15:32:46.961081","emg","-3","9","-8","7","0","-16","3","-2","2018-07-03T15:32:46.960036"
"2018-07-03T15:32:46.968750","emg","13","-35","-29","13","0","8","-17","0","2018-07-03T15:32:46.967474"
"2018-07-03T15:32:46.969149","emg","-1","7","-15","-20","-10","-10","1","0","2018-07-03T15:32:46.968114"
"2018-07-03T15:32:46.975408","acc","-815","-380","1094","gyro","-127","2847","2537","quat","13133","-3685","4408","7933","2018-07-03T15:32:46.974433"
"2018-07-03T15:32:46.982612","emg","-19","30","45","7","6","1","-34","-6","2018-07-03T15:32:46.981722"
"2018-07-03T15:32:46.983005","emg","32","1","74","17","3","1","-41","0","2018-07-03T15:32:46.982143"
"2018-07-03T15:32:46.991339","emg","-34","4","-12","-8","-3","-6","-15","-7","2018-07-03T15:32:46.990238"
"2018-07-03T15:32:46.991838","emg","10","-18","-43","-7","-4","-6","4","2","2018-07-03T15:32:46.990771"
"2018-07-03T15:32:46.993012","acc","-814","-315","1112","gyro","52","2504","2362","quat","12803","-3780","4857","8161","2018-07-03T15:32:46.992297"
"2018-07-03T15:32:46.998310","emg","-19","2","-13","-22","-5","8","7","-2","2018-07-03T15:32:46.997244"
"2018-07-03T15:32:46.998641","emg","5","24","34","35","10","-12","10","2","2018-07-03T15:32:46.997734"
"2018-07-03T15:32:47.014347","emg","-15","-30","-11","-10","-4","8","-15","-2","2018-07-03T15:32:47.013157"
"2018-07-03T15:32:47.014718","emg","13","0","8","10","9","-53","11","2","2018-07-03T15:32:47.013816"
"2018-07-03T15:32:47.016139","acc","-1191","-230","1052","gyro","284","2068","1899","quat","12531","-3826","5246","8321","2018-07-03T15:32:47.015330"
"2018-07-03T15:32:47.021008","emg","-3","-5","5","-12","-18","31","-3","-3","2018-07-03T15:32:47.019812"
"2018-07-03T15:32:47.021366","emg","4","-8","17","-8","-2","-6","10","3","2018-07-03T15:32:47.020409"
"2018-07-03T15:32:47.036731","acc","-848","-137","975","gyro","210","1678","1504","quat","12305","-3862","5551","8442","2018-07-03T15:32:47.035544"
"2018-07-03T15:32:47.037782","emg","-38","9","-23","13","4","-2","-2","-5","2018-07-03T15:32:47.036961"
"2018-07-03T15:32:47.038132","emg","-10","-7","35","-6","-6","3","5","-2","2018-07-03T15:32:47.037365"
"2018-07-03T15:32:47.043091","emg","12","16","-57","-8","-2","-18","-4","1","2018-07-03T15:32:47.041955"
"2018-07-03T15:32:47.043464","emg","-31","-11","-11","15","2","0","2","-5","2018-07-03T15:32:47.042476"
"2018-07-03T15:32:47.051611","acc","-711","87","1019","gyro","-53","1308","1238","quat","12117","-3893","5752","8564","2018-07-03T15:32:47.050438"
"2018-07-03T15:32:47.052692","emg","1","9","2","-15","-3","-3","-3","-4","2018-07-03T15:32:47.051824"
"2018-07-03T15:32:47.053047","emg","1","-15","30","17","14","27","-1","-1","2018-07-03T15:32:47.052229"
"2018-07-03T15:32:47.058120","emg","3","37","-22","6","1","-9","-5","-2","2018-07-03T15:32:47.057012"
"2018-07-03T15:32:47.058478","emg","13","-3","21","-12","-10","5","6","2","2018-07-03T15:32:47.057593"
"2018-07-03T15:32:47.074934","acc","-917","-99","1082","gyro","-103","1026","748","quat","11990","-3951","5884","8628","2018-07-03T15:32:47.073447"
"2018-07-03T15:32:47.077164","emg","-13","13","-31","-33","-12","-10","-6","0","2018-07-03T15:32:47.075931"
"2018-07-03T15:32:47.077752","emg","5","-20","-4","30","12","17","3","-6","2018-07-03T15:32:47.076421"
"2018-07-03T15:32:47.080463","emg","21","-9","22","-4","-1","-7","3","4","2018-07-03T15:32:47.079426"
"2018-07-03T15:32:47.081037","emg","5","6","-5","-8","-1","6","7","1","2018-07-03T15:32:47.079936"
"2018-07-03T15:32:47.096411","acc","-1201","-161","1095","gyro","60","772","408","quat","11913","-3998","5988","8640","2018-07-03T15:32:47.095284"
"2018-07-03T15:32:47.097529","emg","8","7","-2","18","12","-33","-1","3","2018-07-03T15:32:47.096697"
"2018-07-03T15:32:47.097876","emg","-1","-14","-30","-41","-11","25","-8","-3","2018-07-03T15:32:47.097112"
"2018-07-03T15:32:47.103093","emg","4","0","23","54","7","-6","30","18","2018-07-03T15:32:47.101992"
"2018-07-03T15:32:47.103454","emg","4","-16","-31","-12","-10","5","-34","13","2018-07-03T15:32:47.102566"
"2018-07-03T15:32:47.111428","acc","-1181","-50","1032","gyro","343","522","156","quat","11886","-3994","6082","8614","2018-07-03T15:32:47.110295"
"2018-07-03T15:32:47.112479","emg","-18","-9","43","-14","-1","29","-1","-57","2018-07-03T15:32:47.111663"
"2018-07-03T15:32:47.112931","emg","-32","33","-15","16","-1","-29","0","-11","2018-07-03T15:32:47.112065"
"2018-07-03T15:32:47.118158","emg","-13","-8","-41","-39","-7","-10","-11","-2","2018-07-03T15:32:47.117043"
"2018-07-03T15:32:47.118515","emg","13","-45","-43","5","1","-1","19","28","2018-07-03T15:32:47.117620"
"2018-07-03T15:32:47.134045","acc","-977","313","928","gyro","12","196","224","quat","11850","-3971","6120","8646","2018-07-03T15:32:47.133068"
"2018-07-03T15:32:47.134914","emg","7","-21","-2","-9","-1","-1","-2","5","2018-07-03T15:32:47.134247"
"2018-07-03T15:32:47.135216","emg","33","54","5","-9","-10","-6","-22","-7","2018-07-03T15:32:47.134539"
"2018-07-03T15:32:47.140798","emg","-15","18","18","-11","-4","6","12","-17","2018-07-03T15:32:47.139756"
"2018-07-03T15:32:47.141117","emg","5","3","16","-4","1","-15","2","5","2018-07-03T15:32:47.140286"
"2018-07-03T15:32:47.156644","acc","-1050","294","1019","gyro","-407","-147","71","quat","11835","-3979","6066","8701","2018-07-03T15:32:47.155455"
"2018-07-03T15:32:47.157689","emg","7","-5","-46","6","3","14","1","14","2018-07-03T15:32:47.156869"
"2018-07-03T15:32:47.158033","emg","-10","-32","-31","-7","-8","-2","2","-6","2018-07-03T15:32:47.157276"
"2018-07-03T15:32:47.162793","emg","9","-18","38","-2","2","-7","-14","15","2018-07-03T15:32:47.161809"
"2018-07-03T15:32:47.163111","emg","6","9","6","-13","-3","5","5","-14","2018-07-03T15:32:47.162291"
"2018-07-03T15:32:47.171405","acc","-1419","197","990","gyro","-561","-505","-149","quat","11851","-4008","5955","8743","2018-07-03T15:32:47.170279"
"2018-07-03T15:32:47.172464","emg","0","-8","5","22","7","10","-6","-7","2018-07-03T15:32:47.171652"
"2018-07-03T15:32:47.172851","emg","-1","-7","-16","-3","1","2","5","12","2018-07-03T15:32:47.172048"
"2018-07-03T15:32:47.177667","emg","6","6","3","0","-6","14","13","-3","2018-07-03T15:32:47.176890"
"2018-07-03T15:32:47.177969","emg","-8","3","32","-8","-7","-44","2","-5","2018-07-03T15:32:47.177302"
"2018-07-03T15:32:47.194159","acc","-2007","121","1077","gyro","-95","-692","-732","quat","11945","-4018","5857","8676","2018-07-03T15:32:47.193147"
"2018-07-03T15:32:47.195112","emg","0","1","-17","11","10","43","-13","1","2018-07-03T15:32:47.194372"
"2018-07-03T15:32:47.195414","emg","0","-21","-8","4","-4","-33","-14","5","2018-07-03T15:32:47.194743"
"2018-07-03T15:32:47.200791","emg","-1","-15","-30","-9","-4","19","11","-2","2018-07-03T15:32:47.199733"
"2018-07-03T15:32:47.201105","emg","-7","-4","-13","-5","-3","-2","12","-11","2018-07-03T15:32:47.200265"
"2018-07-03T15:32:47.216856","acc","-2019","38","1143","gyro","217","-680","-1078","quat","12085","-4012","5771","8542","2018-07-03T15:32:47.215665"
"2018-07-03T15:32:47.217912","emg","-4","50","34","3","-5","-3","-1","6","2018-07-03T15:32:47.217092"
"2018-07-03T15:32:47.218251","emg","3","-18","-35","11","8","11","8","1","2018-07-03T15:32:47.217496"
"2018-07-03T15:32:47.222755","emg","0","18","34","-18","-8","-17","-16","-7","2018-07-03T15:32:47.221873"
"2018-07-03T15:32:47.223099","emg","-7","-24","57","18","0","-1","-1","-4","2018-07-03T15:32:47.222336"
"2018-07-03T15:32:47.231511","acc","-1900","64","1019","gyro","219","-598","-818","quat","12191","-3995","5712","8438","2018-07-03T15:32:47.230508"
"2018-07-03T15:32:47.232430","emg","1","7","-22","-16","-2","-11","1","5","2018-07-03T15:32:47.231711"
"2018-07-03T15:32:47.232793","emg","3","-11","30","-4","-5","15","-2","0","2018-07-03T15:32:47.232059"
"2018-07-03T15:32:47.238088","emg","-31","-22","-64","11","13","-42","-6","-5","2018-07-03T15:32:47.237065"
"2018-07-03T15:32:47.238431","emg","7","17","-14","-10","-2","16","-2","-5","2018-07-03T15:32:47.237599"
"2018-07-03T15:32:47.254353","acc","-2024","59","1130","gyro","35","-410","-331","quat","12232","-3989","5682","8403","2018-07-03T15:32:47.253220"
"2018-07-03T15:32:47.255460","emg","5","-29","-12","-17","-12","-13","-10","5","2018-07-03T15:32:47.254577"
"2018-07-03T15:32:47.255809","emg","8","21","48","27","18","34","12","-5","2018-07-03T15:32:47.254977"
"2018-07-03T15:32:47.261119","emg","-9","4","-32","-2","-16","-9","-8","-15","2018-07-03T15:32:47.259990"
"2018-07-03T15:32:47.261485","emg","-15","-8","-5","0","11","-4","-6","-1","2018-07-03T15:32:47.260578"
"2018-07-03T15:32:47.276477","acc","-2138","-12","1122","gyro","-316","-278","-225","quat","12237","-4044","5645","8393","2018-07-03T15:32:47.275329"
"2018-07-03T15:32:47.277595","emg","4","9","-7","5","-9","-7","2","-5","2018-07-03T15:32:47.276767"
"2018-07-03T15:32:47.277947","emg","3","3","-14","-16","-11","7","9","23","2018-07-03T15:32:47.277181"
"2018-07-03T15:32:47.282822","emg","14","-16","14","2","4","-2","-1","-2","2018-07-03T15:32:47.281893"
"2018-07-03T15:32:47.283173","emg","-42","15","-17","-2","0","4","-6","-7","2018-07-03T15:32:47.282358"
"2018-07-03T15:32:47.291543","acc","-1583","-98","1109","gyro","-375","-148","56","quat","12220","-4089","5602","8425","2018-07-03T15:32:47.290426"
"2018-07-03T15:32:47.292575","emg","12","4","1","-12","-4","-13","4","0","2018-07-03T15:32:47.291817"
"2018-07-03T15:32:47.292955","emg","-4","-18","-19","3","-4","-9","-6","-9","2018-07-03T15:32:47.292169"
"2018-07-03T15:32:47.306030","emg","9","-7","1","-14","6","13","-9","6","2018-07-03T15:32:47.304907"
"2018-07-03T15:32:47.306385","emg","-2","18","74","26","-1","-7","1","-5","2018-07-03T15:32:47.305496"
"2018-07-03T15:32:47.314000","acc","-1537","-58","1211","gyro","-49","93","246","quat","12188","-4094","5624","8454","2018-07-03T15:32:47.312873"
"2018-07-03T15:32:47.315040","emg","-16","-15","-15","-13","5","0","2","6","2018-07-03T15:32:47.314225"
"2018-07-03T15:32:47.315385","emg","-2","11","-4","7","-7","-7","-2","-6","2018-07-03T15:32:47.314625"
"2018-07-03T15:32:47.321015","emg","3","-19","9","-27","-10","-2","-12","3","2018-07-03T15:32:47.319860"
"2018-07-03T15:32:47.321372","emg","11","-1","-33","21","6","-13","19","-2","2018-07-03T15:32:47.320447"
"2018-07-03T15:32:47.336892","acc","-1600","-124","1202","gyro","69","235","458","quat","12134","-4090","5683","8495","2018-07-03T15:32:47.335701"
"2018-07-03T15:32:47.337911","emg","-2","1","-10","52","8","10","-30","-2","2018-07-03T15:32:47.337110"
"2018-07-03T15:32:47.338256","emg","-4","-30","-49","-7","-1","-1","3","-1","2018-07-03T15:32:47.337486"
"2018-07-03T15:32:47.343082","emg","-22","30","44","1","-6","-2","-3","-3","2018-07-03T15:32:47.341966"
"2018-07-03T15:32:47.343441","emg","37","8","-14","-23","-6","10","-2","4","2018-07-03T15:32:47.342547"
"2018-07-03T15:32:47.351546","acc","-1378","-100","1147","gyro","2","404","606","quat","12056","-4095","5757","8554","2018-07-03T15:32:47.350417"
"2018-07-03T15:32:47.352653","emg","21","0","13","3","-1","5","11","42","2018-07-03T15:32:47.351776"
"2018-07-03T15:32:47.353021","emg","-19","-1","-20","-34","-9","-11","-4","-65","2018-07-03T15:32:47.352184"
"2018-07-03T15:32:47.365573","emg","-24","-15","-9","37","8","-5","-5","-6","2018-07-03T15:32:47.364433"
"2018-07-03T15:32:47.365935","emg","-23","0","9","-8","-5","11","-3","2","2018-07-03T15:32:47.365009"
"2018-07-03T15:32:47.374539","acc","-1344","-4","1067","gyro","-88","463","621","quat","11965","-4112","5836","8620","2018-07-03T15:32:47.373491"
"2018-07-03T15:32:47.375535","emg","3","-37","-29","11","13","-7","12","12","2018-07-03T15:32:47.374762"
"2018-07-03T15:32:47.375888","emg","7","60","92","-31","-11","-11","-5","33","2018-07-03T15:32:47.375092"
"2018-07-03T15:32:47.380779","emg","18","8","35","2","-3","2","-1","-24","2018-07-03T15:32:47.379634"
"2018-07-03T15:32:47.381142","emg","6","-27","-101","1","0","14","3","3","2018-07-03T15:32:47.380157"
"2018-07-03T15:32:47.396634","acc","-1376","80","1139","gyro","-120","469","393","quat","11893","-4139","5902","8661","2018-07-03T15:32:47.395536"
"2018-07-03T15:32:47.397708","emg","-3","65","64","-18","-6","-10","-3","-10","2018-07-03T15:32:47.396886"
"2018-07-03T15:32:47.398057","emg","-7","-32","-39","37","10","-5","2","0","2018-07-03T15:32:47.397228"
"2018-07-03T15:32:47.403042","emg","7","-13","-3","-13","-3","-1","-2","6","2018-07-03T15:32:47.401951"
"2018-07-03T15:32:47.403406","emg","3","-2","1","13","4","-8","-4","6","2018-07-03T15:32:47.402477"
"2018-07-03T15:32:47.411482","acc","-1173","112","1056","gyro","-200","357","253","quat","11839","-4170","5937","8696","2018-07-03T15:32:47.410404"
"2018-07-03T15:32:47.412464","emg","-11","-30","-26","0","-12","-4","3","2","2018-07-03T15:32:47.411698"
"2018-07-03T15:32:47.412855","emg","-4","3","-16","-2","-1","20","-2","-22","2018-07-03T15:32:47.412027"
"2018-07-03T15:32:47.417922","emg","-25","3","-27","-9","-1","-5","-4","14","2018-07-03T15:32:47.416987"
"2018-07-03T15:32:47.418276","emg","-38","-20","55","23","1","1","-6","-17","2018-07-03T15:32:47.417423"
"2018-07-03T15:32:47.433419","acc","-1280","123","1129","gyro","-315","164","108","quat","11805","-4206","5929","8730","2018-07-03T15:32:47.432613"
"2018-07-03T15:32:47.434540","emg","23","-20","-55","-34","-8","-16","0","-2","2018-07-03T15:32:47.433766"
"2018-07-03T15:32:47.434840","emg","-18","17","21","15","5","-9","1","-10","2018-07-03T15:32:47.434102"
"2018-07-03T15:32:47.440725","emg","19","-18","13","5","3","20","18","23","2018-07-03T15:32:47.439685"
"2018-07-03T15:32:47.441042","emg","-9","29","22","-21","-3","1","-1","-9","2018-07-03T15:32:47.440181"
"2018-07-03T15:32:47.456462","acc","-1127","176","1113","gyro","-260","-189","-198","quat","11826","-4213","5866","8740","2018-07-03T15:32:47.455389"
"2018-07-03T15:32:47.457489","emg","-10","26","14","-10","-5","-2","2","-10","2018-07-03T15:32:47.456724"
"2018-07-03T15:32:47.457840","emg","4","5","-13","0","2","-8","-1","17","2018-07-03T15:32:47.457056"
"2018-07-03T15:32:47.462821","emg","4","-15","5","10","5","11","4","-7","2018-07-03T15:32:47.461877"
"2018-07-03T15:32:47.463138","emg","13","-18","-60","-13","-5","-29","-5","6","2018-07-03T15:32:47.462368"
"2018-07-03T15:32:47.470864","acc","-1313","-73","1127","gyro","91","-500","-642","quat","11927","-4196","5772","8673","2018-07-03T15:32:47.470043"
"2018-07-03T15:32:47.471898","emg","-1","-4","26","14","7","23","-8","-11","2018-07-03T15:32:47.471137"
"2018-07-03T15:32:47.472204","emg","4","-6","-26","-8","-4","0","4","7","2018-07-03T15:32:47.471479"
"2018-07-03T15:32:47.485180","emg","5","16","19","1","-2","-9","-5","2","2018-07-03T15:32:47.484284"
"2018-07-03T15:32:47.485553","emg","7","9","15","-5","-1","3","-2","-4","2018-07-03T15:32:47.484700"
"2018-07-03T15:32:47.493594","acc","-1402","-174","1114","gyro","453","-632","-905","quat","12076","-4146","5684","8550","2018-07-03T15:32:47.492549"
"2018-07-03T15:32:47.494852","emg","-8","-29","-22","11","5","-3","-2","0","2018-07-03T15:32:47.493992"
"2018-07-03T15:32:47.495179","emg","-63","10","20","-13","-5","3","-4","3","2018-07-03T15:32:47.494404"
"2018-07-03T15:32:47.500822","emg","16","22","30","-9","3","-6","-1","-11","2018-07-03T15:32:47.499782"
"2018-07-03T15:32:47.501134","emg","-7","-11","11","1","-3","8","-4","-2","2018-07-03T15:32:47.500311"
"2018-07-03T15:32:47.516118","acc","-1269","70","1182","gyro","446","-681","-901","quat","12222","-4067","5594","8439","2018-07-03T15:32:47.515190"
"2018-07-03T15:32:47.517108","emg","-26","5","19","-6","-1","-9","1","-9","2018-07-03T15:32:47.516341"
"2018-07-03T15:32:47.517414","emg","20","3","-24","6","-1","3","4","8","2018-07-03T15:32:47.516741"
"2018-07-03T15:32:47.522864","emg","3","-29","-65","-6","5","5","-2","0","2018-07-03T15:32:47.521875"
"2018-07-03T15:32:47.523174","emg","5","41","36","-21","-7","-3","-5","-4","2018-07-03T15:32:47.522394"
"2018-07-03T15:32:47.531268","acc","-1271","-79","1197","gyro","158","-764","-886","quat","12358","-4028","5461","8345","2018-07-03T15:32:47.530258"
"2018-07-03T15:32:47.532187","emg","-9","10","31","-3","0","0","3","-2","2018-07-03T15:32:47.531478"
"2018-07-03T15:32:47.532487","emg","19","-11","-5","-2","-5","-7","-3","-1","2018-07-03T15:32:47.531828"
"2018-07-03T15:32:47.545759","emg","-10","-1","17","3","-2","-5","-5","0","2018-07-03T15:32:47.544788"
"2018-07-03T15:32:47.546067","emg","5","-11","-22","1","0","7","1","0","2018-07-03T15:32:47.545326"
"2018-07-03T15:32:47.554058","acc","-1111","-66","1162","gyro","-31","-946","-886","quat","12496","-3992","5284","8271","2018-07-03T15:32:47.553114"
"2018-07-03T15:32:47.554933","emg","3","5","-2","-4","-1","-4","27","-3","2018-07-03T15:32:47.554256"
"2018-07-03T15:32:47.555292","emg","14","4","19","-15","1","4","-23","2","2018-07-03T15:32:47.554537"
"2018-07-03T15:32:47.560797","emg","-4","-9","-17","12","2","-2","-6","-3","2018-07-03T15:32:47.559767"
"2018-07-03T15:32:47.561111","emg","-11","4","-3","-2","-1","4","2","1","2018-07-03T15:32:47.560282"
"2018-07-03T15:32:47.575846","acc","-1080","-203","1187","gyro","88","-1161","-918","quat","12654","-3930","5080","8188","2018-07-03T15:32:47.575047"
"2018-07-03T15:32:47.576870","emg","3","1","-8","-5","1","-1","-2","0","2018-07-03T15:32:47.576122"
"2018-07-03T15:32:47.577172","emg","-16","-8","17","2","-4","-7","10","2","2018-07-03T15:32:47.576429"
"2018-07-03T15:32:47.582946","emg","5","-8","-10","9","4","4","3","-2","2018-07-03T15:32:47.582002"
"2018-07-03T15:32:47.583253","emg","-1","-6","19","-2","0","4","-5","-3","2018-07-03T15:32:47.582483"
"2018-07-03T15:32:47.591277","acc","-1486","-198","1195","gyro","259","-1354","-1107","quat","12830","-3849","4882","8072","2018-07-03T15:32:47.590256"
"2018-07-03T15:32:47.592179","emg","21","6","-28","8","-2","-5","-2","2","2018-07-03T15:32:47.591465"
"2018-07-03T15:32:47.592475","emg","6","9","11","-6","-3","-1","-1","-1","2018-07-03T15:32:47.591818"
"2018-07-03T15:32:47.605805","emg","1","18","8","0","-8","-9","-7","0","2018-07-03T15:32:47.604812"
"2018-07-03T15:32:47.606114","emg","4","-11","-8","-4","2","0","0","-1","2018-07-03T15:32:47.605333"
"2018-07-03T15:32:47.614377","acc","-1633","-318","1228","gyro","359","-1597","-1538","quat","13051","-3768","4646","7893","2018-07-03T15:32:47.613238"
"2018-07-03T15:32:47.615422","emg","0","-12","-7","0","-4","-3","-4","-1","2018-07-03T15:32:47.614603"
"2018-07-03T15:32:47.615826","emg","-37","-13","-16","5","3","2","2","-3","2018-07-03T15:32:47.615007"
"2018-07-03T15:32:47.621048","emg","0","4","10","-1","-1","3","-2","-5","2018-07-03T15:32:47.619861"
"2018-07-03T15:32:47.621429","emg","7","-5","-11","-5","-4","-3","-1","-2","2018-07-03T15:32:47.620452"
"2018-07-03T15:32:47.636984","acc","-1222","-370","1223","gyro","431","-1917","-1660","quat","13303","-3629","4341","7708","2018-07-03T15:32:47.635638"
"2018-07-03T15:32:47.638341","emg","-1","3","6","0","0","-1","-3","-2","2018-07-03T15:32:47.637417"
"2018-07-03T15:32:47.638747","emg","21","5","-1","5","1","1","2","4","2018-07-03T15:32:47.637865"
"2018-07-03T15:32:47.642777","emg","-6","-4","4","-6","-5","-4","0","-3","2018-07-03T15:32:47.641847"
"2018-07-03T15:32:47.643188","emg","-8","-2","-9","0","-5","-3","-2","-1","2018-07-03T15:32:47.642263"
"2018-07-03T15:32:47.651623","acc","-1051","-206","1176","gyro","588","-2099","-1692","quat","13561","-3448","4020","7514","2018-07-03T15:32:47.650396"
"2018-07-03T15:32:47.652930","emg","7","4","3","1","3","4","5","1","2018-07-03T15:32:47.652054"
"2018-07-03T15:32:47.653335","emg","5","-11","-1","4","4","0","28","1","2018-07-03T15:32:47.652420"
"2018-07-03T15:32:47.666049","emg","41","27","21","-3","-1","-6","-53","-4","2018-07-03T15:32:47.664880"
"2018-07-03T15:32:47.666434","emg","-8","7","6","1","-4","3","-3","-2","2018-07-03T15:32:47.665406"
"2018-07-03T15:32:47.674343","acc","-1243","-121","1299","gyro","591","-2357","-1719","quat","13818","-3242","3661","7319","2018-07-03T15:32:47.673263"
"2018-07-03T15:32:47.675385","emg","-3","8","3","-7","-4","-4","-3","-1","2018-07-03T15:32:47.674613"
"2018-07-03T15:32:47.675731","emg","16","-12","-17","-1","-2","4","4","3","2018-07-03T15:32:47.674963"
"2018-07-03T15:32:47.680492","emg","-19","-37","-8","1","0","4","19","2","2018-07-03T15:32:47.679409"
"2018-07-03T15:32:47.680955","emg","5","23","3","-1","0","-5","-2","0","2018-07-03T15:32:47.679954"
"2018-07-03T15:32:47.696428","acc","-1321","-216","1411","gyro","325","-2671","-1759","quat","14065","-3051","3229","7131","2018-07-03T15:32:47.695366"
"2018-07-03T15:32:47.697645","emg","-16","21","13","12","6","3","-4","-2","2018-07-03T15:32:47.696694"
"2018-07-03T15:32:47.698049","emg","-6","-85","-18","-3","-1","-3","-4","-3","2018-07-03T15:32:47.697119"
"2018-07-03T15:32:47.702884","emg","-1","84","1","-6","-2","-5","5","1","2018-07-03T15:32:47.701824"
"2018-07-03T15:32:47.703220","emg","-4","-64","-8","-5","-3","-3","-4","0","2018-07-03T15:32:47.702325"
"2018-07-03T15:32:47.711690","acc","-1144","-563","1540","gyro","465","-2954","-1872","quat","14318","-2823","2752","6919","2018-07-03T15:32:47.710687"
"2018-07-03T15:32:47.713626","emg","-12","5","-11","-8","-8","-8","1","0","2018-07-03T15:32:47.712410"
"2018-07-03T15:32:47.714184","emg","0","21","12","-3","8","3","-8","-4","2018-07-03T15:32:47.712957"
"2018-07-03T15:32:47.725268","emg","5","-50","-3","16","5","6","8","2","2018-07-03T15:32:47.724294"
"2018-07-03T15:32:47.725587","emg","-21","7","-5","-1","4","1","2","-5","2018-07-03T15:32:47.724772"
"2018-07-03T15:32:47.734054","acc","-1029","-600","1624","gyro","948","-3095","-1872","quat","14568","-2505","2285","6686","2018-07-03T15:32:47.733101"
"2018-07-03T15:32:47.735221","emg","30","1","6","2","0","-1","0","1","2018-07-03T15:32:47.734296"
"2018-07-03T15:32:47.735629","emg","-14","-12","-15","-4","-10","-9","-10","-4","2018-07-03T15:32:47.734715"
"2018-07-03T15:32:47.740158","emg","8","28","-9","-14","-10","-2","2","-3","2018-07-03T15:32:47.739259"
"2018-07-03T15:32:47.740514","emg","10","-5","13","-1","3","5","2","2","2018-07-03T15:32:47.739667"
"2018-07-03T15:32:47.756802","acc","-876","-210","1497","gyro","1719","-3211","-1721","quat","14804","-2042","1860","6451","2018-07-03T15:32:47.755527"
"2018-07-03T15:32:47.758094","emg","-15","-25","16","6","4","3","-1","-3","2018-07-03T15:32:47.757229"
"2018-07-03T15:32:47.758508","emg","1","-41","-25","-3","-1","0","-6","-2","2018-07-03T15:32:47.757614"
"2018-07-03T15:32:47.763237","emg","-12","-48","23","6","-3","-1","6","0","2018-07-03T15:32:47.762059"
"2018-07-03T15:32:47.763616","emg","35","33","13","-2","-4","-2","-1","3","2018-07-03T15:32:47.762589"
"2018-07-03T15:32:47.771603","acc","-885","96","1488","gyro","1786","-3331","-1454","quat","14998","-1546","1428","6249","2018-07-03T15:32:47.770397"
"2018-07-03T15:32:47.772933","emg","-5","30","-12","-4","1","-1","-5","-3","2018-07-03T15:32:47.772040"
"2018-07-03T15:32:47.773333","emg","7","17","-25","-2","3","-1","0","2","2018-07-03T15:32:47.772417"
"2018-07-03T15:32:47.785656","emg","-6","100","23","2","-1","-2","5","1","2018-07-03T15:32:47.784574"
"2018-07-03T15:32:47.786014","emg","-24","-79","-16","-1","-3","-4","-4","-7","2018-07-03T15:32:47.785121"
"2018-07-03T15:32:47.794373","acc","-819","-67","1736","gyro","1110","-3521","-1215","quat","15139","-1145","919","6087","2018-07-03T15:32:47.793240"
"2018-07-03T15:32:47.795424","emg","-1","-7","14","3","0","-2","-4","-2","2018-07-03T15:32:47.794613"
"2018-07-03T15:32:47.795767","emg","52","40","-2","7","1","3","1","4","2018-07-03T15:32:47.795013"
"2018-07-03T15:32:47.800557","emg","1","-21","-16","-6","-2","-2","-2","1","2018-07-03T15:32:47.799411"
"2018-07-03T15:32:47.800985","emg","0","60","6","5","2","1","0","1","2018-07-03T15:32:47.799924"
"2018-07-03T15:32:47.815999","acc","-540","-281","1843","gyro","585","-3568","-1092","quat","15242","-828","363","5941","2018-07-03T15:32:47.815115"
"2018-07-03T15:32:47.817197","emg","-6","6","-8","-4","-2","-10","2","-4","2018-07-03T15:32:47.816430"
"2018-07-03T15:32:47.817554","emg","-16","11","15","5","3","17","1","2","2018-07-03T15:32:47.816790"
"2018-07-03T15:32:47.822646","emg","-23","-59","6","-13","-5","-3","-3","-10","2018-07-03T15:32:47.821751"
"2018-07-03T15:32:47.823225","emg","16","46","13","-2","-4","0","0","14","2018-07-03T15:32:47.822451"
"2018-07-03T15:32:47.831307","acc","-257","-301","1861","gyro","687","-3364","-1117","quat","15321","-506","-158","5778","2018-07-03T15:32:47.830355"
"2018-07-03T15:32:47.832229","emg","-7","-59","-40","-6","-3","-5","6","2","2018-07-03T15:32:47.831510"
"2018-07-03T15:32:47.832551","emg","-25","76","48","-4","-9","-9","-6","-3","2018-07-03T15:32:47.831812"
"2018-07-03T15:32:47.845776","emg","7","-47","-97","7","10","4","1","-4","2018-07-03T15:32:47.844804"
"2018-07-03T15:32:47.846089","emg","0","35","78","21","4","3","4","0","2018-07-03T15:32:47.845282"
"2018-07-03T15:32:47.854313","acc","-2","-138","2027","gyro","1206","-3239","-1073","quat","15378","-101","-626","5615","2018-07-03T15:32:47.853237"
"2018-07-03T15:32:47.855372","emg","-5","3","-32","-14","-5","-2","-6","0","2018-07-03T15:32:47.854537"
"2018-07-03T15:32:47.855721","emg","29","-15","-22","8","7","-2","-2","0","2018-07-03T15:32:47.854883"
"2018-07-03T15:32:47.861130","emg","-20","5","25","-11","-3","2","4","4","2018-07-03T15:32:47.859995"
"2018-07-03T15:32:47.861494","emg","-5","-60","-8","-17","-4","-2","-2","-7","2018-07-03T15:32:47.860531"
"2018-07-03T15:32:47.876501","acc","302","39","1917","gyro","1547","-3004","-1070","quat","15413","351","-1036","5445","2018-07-03T15:32:47.875365"
"2018-07-03T15:32:47.877600","emg","20","-6","37","0","-6","2","-6","-3","2018-07-03T15:32:47.876776"
"2018-07-03T15:32:47.877950","emg","-19","-37","-27","7","3","1","-1","-6","2018-07-03T15:32:47.877129"
"2018-07-03T15:32:47.883091","emg","-24","-77","-1","-2","-2","-5","-2","-3","2018-07-03T15:32:47.881999"
"2018-07-03T15:32:47.883448","emg","7","-22","-55","4","0","-2","0","-1","2018-07-03T15:32:47.882522"
"2018-07-03T15:32:47.891098","acc","455","90","1928","gyro","747","-2776","-772","quat","15417","652","-1456","5310","2018-07-03T15:32:47.890221"
"2018-07-03T15:32:47.892224","emg","3","26","87","-2","-1","2","2","6","2018-07-03T15:32:47.891408"
"2018-07-03T15:32:47.892557","emg","-10","-50","-32","-8","-6","-6","-5","1","2018-07-03T15:32:47.891754"
"2018-07-03T15:32:47.906021","emg","44","75","0","7","2","-7","5","-1","2018-07-03T15:32:47.904863"
"2018-07-03T15:32:47.906582","emg","-20","17","-40","-10","-3","-2","-4","-4","2018-07-03T15:32:47.905423"
"2018-07-03T15:32:47.914305","acc","638","35","1967","gyro","301","-2622","-366","quat","15387","861","-1879","5233","2018-07-03T15:32:47.913236"
"2018-07-03T15:32:47.915322","emg","5","-1","25","-3","-6","10","2","-2","2018-07-03T15:32:47.914508"
"2018-07-03T15:32:47.915670","emg","6","-20","-40","8","0","-9","-6","3","2018-07-03T15:32:47.914849"
"2018-07-03T15:32:47.920994","emg","7","6","35","7","7","6","4","9","2018-07-03T15:32:47.919823"
"2018-07-03T15:32:47.921361","emg","10","28","49","-3","-2","-10","6","14","2018-07-03T15:32:47.920416"
"2018-07-03T15:32:47.936712","acc","864","-21","2010","gyro","137","-2348","-273","quat","15347","1023","-2267","5166","2018-07-03T15:32:47.935589"
"2018-07-03T15:32:47.937762","emg","-6","27","-43","-6","-1","7","-5","-29","2018-07-03T15:32:47.936946"
"2018-07-03T15:32:47.938110","emg","-1","-61","6","-8","-8","-2","-1","-7","2018-07-03T15:32:47.937298"
"2018-07-03T15:32:47.942977","emg","1","96","10","-1","-3","0","-4","-11","2018-07-03T15:32:47.941935"
"2018-07-03T15:32:47.943337","emg","-17","-58","-20","5","1","3","2","-6","2018-07-03T15:32:47.942441"
"2018-07-03T15:32:47.951454","acc","1023","-9","2028","gyro","102","-1993","-288","quat","15308","1159","-2598","5097","2018-07-03T15:32:47.950380"
"2018-07-03T15:32:47.952459","emg","-5","42","-4","7","2","-4","-5","8","2018-07-03T15:32:47.951674"
"2018-07-03T15:32:47.952849","emg","-1","6","28","-8","-4","-2","12","3","2018-07-03T15:32:47.952019"
"2018-07-03T15:32:47.965422","emg","-11","-23","-23","-6","-2","-3","-15","0","2018-07-03T15:32:47.964334"
"2018-07-03T15:32:47.965802","emg","-1","-5","34","7","-4","-1","-4","-1","2018-07-03T15:32:47.964893"
"2018-07-03T15:32:47.982543","acc","1004","116","1975","gyro","-7","-1714","-182","quat","15266","1261","-2886","5044","2018-07-03T15:32:47.981460"
"2018-07-03T15:32:47.983552","emg","-14","-61","-27","7","6","-3","-5","-2","2018-07-03T15:32:47.982684"
"2018-07-03T15:32:47.983968","emg","23","77","8","-8","-4","2","0","1","2018-07-03T15:32:47.983140"
"2018-07-03T15:32:47.985650","emg","0","-47","-18","-2","1","-1","8","7","2018-07-03T15:32:47.984701"
"2018-07-03T15:32:47.985939","emg","5","29","-14","1","0","0","-1","-9","2018-07-03T15:32:47.985306"
"2018-07-03T15:32:47.996725","acc","960","213","1776","gyro","-242","-1464","-206","quat","15231","1325","-3149","4977","2018-07-03T15:32:47.995626"
"2018-07-03T15:32:47.998146","emg","-15","-23","49","4","-9","-6","-6","5","2018-07-03T15:32:47.997354"
"2018-07-03T15:32:47.998420","emg","-2","42","18","1","1","0","7","-5","2018-07-03T15:32:47.997790"
"2018-07-03T15:32:48.002964","emg","-6","-14","9","1","3","5","-16","-6","2018-07-03T15:32:48.002122"
"2018-07-03T15:32:48.003251","emg","26","-25","-14","5","0","-13","-2","-3","2018-07-03T15:32:48.002567"
"2018-07-03T15:32:48.010803","acc","947","120","1681","gyro","-419","-1375","-89","quat","15190","1343","-3408","4926","2018-07-03T15:32:48.010030"
"2018-07-03T15:32:48.011806","emg","31","67","-49","-1","3","8","5","2","2018-07-03T15:32:48.011082"
"2018-07-03T15:32:48.012250","emg","-15","-20","28","-3","2","23","-4","78","2018-07-03T15:32:48.011382"
"2018-07-03T15:32:48.025705","emg","1","-13","-17","-11","-12","-34","30","-75","2018-07-03T15:32:48.024668"
"2018-07-03T15:32:48.026036","emg","-14","17","-18","-4","-3","2","-32","5","2018-07-03T15:32:48.025146"
"2018-07-03T15:32:48.034189","acc","995","-66","1742","gyro","-482","-1294","17","quat","15144","1326","-3658","4893","2018-07-03T15:32:48.033109"
"2018-07-03T15:32:48.035288","emg","-3","1","-5","1","3","-4","17","4","2018-07-03T15:32:48.034564"
"2018-07-03T15:32:48.035636","emg","-5","9","10","2","2","-3","-28","-2","2018-07-03T15:32:48.034887"
"2018-07-03T15:32:48.040480","emg","6","-1","4","6","0","14","8","8","2018-07-03T15:32:48.039250"
"2018-07-03T15:32:48.040899","emg","-7","32","-8","-5","0","-5","8","-3","2018-07-03T15:32:48.039792"
"2018-07-03T15:32:48.056365","acc","1229","-239","2053","gyro","-195","-918","29","quat","15104","1320","-3836","4882","2018-07-03T15:32:48.055248"
"2018-07-03T15:32:48.057699","emg","4","-5","-4","-8","-4","-3","4","7","2018-07-03T15:32:48.056839"
"2018-07-03T15:32:48.058105","emg","-11","-53","5","0","-1","-8","-5","-23","2018-07-03T15:32:48.057224"
"2018-07-03T15:32:48.063263","emg","-11","3","1","1","0","0","-11","34","2018-07-03T15:32:48.061994"
"2018-07-03T15:32:48.063650","emg","9","0","-6","-4","-2","-13","-1","-12","2018-07-03T15:32:48.062622"
"2018-07-03T15:32:48.070965","acc","1633","-710","2543","gyro","847","104","-173","quat","15095","1398","-3814","4907","2018-07-03T15:32:48.070104"
"2018-07-03T15:32:48.072144","emg","-3","-32","1","-2","0","3","-5","7","2018-07-03T15:32:48.071411"
"2018-07-03T15:32:48.072491","emg","-1","8","-4","2","-2","4","8","21","2018-07-03T15:32:48.071737"
"2018-07-03T15:32:48.095050","emg","-7","6","-3","-1","-1","8","0","-54","2018-07-03T15:32:48.093893"
"2018-07-03T15:32:48.095620","emg","3","-15","-3","-4","-1","9","-3","10","2018-07-03T15:32:48.094419"
"2018-07-03T15:32:48.097040","acc","917","608","2138","gyro","601","545","-264","quat","15129","1520","-3654","4885","2018-07-03T15:32:48.096131"
"2018-07-03T15:32:48.098400","emg","-8","-9","-3","2","-1","-8","3","6","2018-07-03T15:32:48.097575"
"2018-07-03T15:32:48.098924","emg","8","31","-1","2","-3","-10","0","-21","2018-07-03T15:32:48.097945"
"2018-07-03T15:32:48.100174","emg","-6","-11","3","-2","-1","-2","-2","15","2018-07-03T15:32:48.099479"
"2018-07-03T15:32:48.100509","emg","-2","27","2","0","-2","3","2","9","2018-07-03T15:32:48.099787"
"2018-07-03T15:32:48.116882","acc","255","948","1627","gyro","-919","525","-85","quat","15185","1410","-3543","4826","2018-07-03T15:32:48.115620"
"2018-07-03T15:32:48.118169","emg","15","-21","-6","-2","0","-2","-5","-11","2018-07-03T15:32:48.117318"
"2018-07-03T15:32:48.118567","emg","-5","2","6","-2","0","-5","-2","-17","2018-07-03T15:32:48.117693"
"2018-07-03T15:32:48.122899","emg","0","-4","1","-1","0","4","-6","23","2018-07-03T15:32:48.121875"
"2018-07-03T15:32:48.123254","emg","1","-4","-11","-2","2","5","6","-16","2018-07-03T15:32:48.122339"
"2018-07-03T15:32:48.132311","acc","494","115","1435","gyro","-2047","143","197","quat","15209","1057","-3623","4781","2018-07-03T15:32:48.131225"
"2018-07-03T15:32:48.133478","emg","-19","11","7","-1","-3","-3","-10","27","2018-07-03T15:32:48.132737"
"2018-07-03T15:32:48.133824","emg","-1","-11","-3","-3","-1","1","8","-4","2018-07-03T15:32:48.133063"
"2018-07-03T15:32:48.145461","emg","-15","12","9","-1","-2","-6","-2","-5","2018-07-03T15:32:48.144402"
"2018-07-03T15:32:48.145800","emg","4","-14","-7","-1","1","11","-1","2","2018-07-03T15:32:48.144906"
"2018-07-03T15:32:48.154447","acc","949","-623","1435","gyro","-1477","-54","85","quat","15209","767","-3743","4745","2018-07-03T15:32:48.153246"
"2018-07-03T15:32:48.155734","emg","-6","-11","3","-3","0","-9","-2","-12","2018-07-03T15:32:48.154897"
"2018-07-03T15:32:48.156137","emg","6","22","-2","-1","-1","12","5","-19","2018-07-03T15:32:48.155265"
"2018-07-03T15:32:48.160944","emg","-3","5","-2","0","-1","-15","-14","21","2018-07-03T15:32:48.159783"
"2018-07-03T15:32:48.161273","emg","-9","-5","-4","-1","-1","-10","-2","-7","2018-07-03T15:32:48.160304"
"2018-07-03T15:32:48.176865","acc","1065","-586","1486","gyro","-182","-127","-38","quat","15197","708","-3811","4738","2018-07-03T15:32:48.175614"
"2018-07-03T15:32:48.178151","emg","-23","-12","-4","-1","-1","7","2","-2","2018-07-03T15:32:48.177304"
"2018-07-03T15:32:48.178554","emg","7","5","-3","1","2","1","-7","-10","2018-07-03T15:32:48.177678"
"2018-07-03T15:32:48.183151","emg","1","1","-1","-1","-3","6","-5","4","2018-07-03T15:32:48.181997"
"2018-07-03T15:32:48.183532","emg","-6","-10","4","-3","-2","-12","1","1","2018-07-03T15:32:48.182513"
"2018-07-03T15:32:48.191537","acc","1044","-56","1495","gyro","715","-140","-199","quat","15190","850","-3816","4732","2018-07-03T15:32:48.190324"
"2018-07-03T15:32:48.192811","emg","2","-5","-3","0","1","-1","1","-8","2018-07-03T15:32:48.191983"
"2018-07-03T15:32:48.193165","emg","-1","8","-1","-3","-2","10","2","8","2018-07-03T15:32:48.192364"
"2018-07-03T15:32:48.206226","emg","4","-11","-5","-2","0","0","1","-11","2018-07-03T15:32:48.205073"
"2018-07-03T15:32:48.206613","emg","0","16","0","0","-1","1","0","7","2018-07-03T15:32:48.205585"
"2018-07-03T15:32:48.214452","acc","1028","213","1566","gyro","612","-95","-226","quat","15190","994","-3807","4712","2018-07-03T15:32:48.213240"
"2018-07-03T15:32:48.215736","emg","-4","-8","-3","-1","-4","-5","-5","-9","2018-07-03T15:32:48.214893"
"2018-07-03T15:32:48.216139","emg","-3","1","-5","0","0","-9","0","-5","2018-07-03T15:32:48.215261"
"2018-07-03T15:32:48.221062","emg","8","5","5","1","0","2","0","14","2018-07-03T15:32:48.219861"
"2018-07-03T15:32:48.221446","emg","-6","0","0","-1","-1","1","2","-4","2018-07-03T15:32:48.220386"
"2018-07-03T15:32:48.236907","acc","1097","232","1682","gyro","-67","-31","-189","quat","15197","1022","-3823","4670","2018-07-03T15:32:48.235643"
"2018-07-03T15:32:48.238175","emg","4","-10","-6","-1","-1","1","-2","31","2018-07-03T15:32:48.237339"
"2018-07-03T15:32:48.238580","emg","-10","9","0","-1","-2","-7","-5","-69","2018-07-03T15:32:48.237711"
"2018-07-03T15:32:48.243143","emg","4","-21","-1","0","-1","6","-8","22","2018-07-03T15:32:48.241992"
"2018-07-03T15:32:48.243519","emg","-5","-21","-2","-2","0","-2","4","8","2018-07-03T15:32:48.242506"
"2018-07-03T15:32:48.251487","acc","1005","58","1705","gyro","-539","61","-76","quat","15208","945","-3844","4632","2018-07-03T15:32:48.250235"
"2018-07-03T15:32:48.252820","emg","-4","7","-4","-2","-2","-5","1","-24","2018-07-03T15:32:48.251925"
"2018-07-03T15:32:48.253226","emg","8","8","3","0","-1","0","-1","34","2018-07-03T15:32:48.252310"
"2018-07-03T15:32:48.266068","emg","1","1","-1","-2","2","-1","-6","-9","2018-07-03T15:32:48.264923"
"2018-07-03T15:32:48.266456","emg","-4","-5","-6","-2","-1","3","0","-8","2018-07-03T15:32:48.265456"
"2018-07-03T15:32:48.274395","acc","874","-124","1673","gyro","-516","89","-41","quat","15219","851","-3856","4606","2018-07-03T15:32:48.273233"
"2018-07-03T15:32:48.275531","emg","9","-3","-2","-3","-5","5","6","5","2018-07-03T15:32:48.274690"
"2018-07-03T15:32:48.275878","emg","-4","-1","2","0","-2","-23","-15","8","2018-07-03T15:32:48.275111"
"2018-07-03T15:32:48.281044","emg","5","-2","0","0","-1","14","4","-16","2018-07-03T15:32:48.279878"
"2018-07-03T15:32:48.281404","emg","-11","-13","-3","-1","-1","-9","0","9","2018-07-03T15:32:48.280464"
"2018-07-03T15:32:48.296842","acc","864","-189","1707","gyro","-395","80","-66","quat","15229","774","-3862","4582","2018-07-03T15:32:48.295653"
"2018-07-03T15:32:48.297893","emg","-2","13","0","-1","0","14","-4","-5","2018-07-03T15:32:48.297067"
"2018-07-03T15:32:48.298234","emg","1","-6","1","0","-1","2","5","3","2018-07-03T15:32:48.297479"
"2018-07-03T15:32:48.303081","emg","1","4","-2","-2","-2","-5","1","7","2018-07-03T15:32:48.301966"
"2018-07-03T15:32:48.303432","emg","0","0","-2","0","-1","-4","-3","-6","2018-07-03T15:32:48.302545"
"2018-07-03T15:32:48.311513","acc","898","-186","1728","gyro","-160","53","-120","quat","15238","741","-3862","4558","2018-07-03T15:32:48.310332"
"2018-07-03T15:32:48.312552","emg","0","-9","-1","-1","1","0","-3","-9","2018-07-03T15:32:48.311737"
"2018-07-03T15:32:48.312952","emg","-3","-3","-1","0","0","-3","0","2","2018-07-03T15:32:48.312142"
"2018-07-03T15:32:48.326012","emg","1","3","1","0","-1","-6","-1","10","2018-07-03T15:32:48.324899"
"2018-07-03T15:32:48.326467","emg","2","5","-1","-1","-2","5","0","-3","2018-07-03T15:32:48.325480"
"2018-07-03T15:32:48.334048","acc","905","-113","1712","gyro","61","50","-110","quat","15244","751","-3851","4543","2018-07-03T15:32:48.332922"
"2018-07-03T15:32:48.335086","emg","1","1","-5","0","0","-8","-3","0","2018-07-03T15:32:48.334271"
"2018-07-03T15:32:48.335429","emg","1","12","-1","0","0","3","-2","4","2018-07-03T15:32:48.334673"
"2018-07-03T15:32:48.341002","emg","-6","-9","0","0","-1","-2","1","5","2018-07-03T15:32:48.339842"
"2018-07-03T15:32:48.341358","emg","1","4","2","0","-2","3","3","-2","2018-07-03T15:32:48.340426"
"2018-07-03T15:32:48.356446","acc","869","-11","1712","gyro","9","40","-95","quat","15252","761","-3839","4527","2018-07-03T15:32:48.355305"
"2018-07-03T15:32:48.357544","emg","3","-3","-1","-2","-1","-4","-6","1","2018-07-03T15:32:48.356725"
"2018-07-03T15:32:48.357894","emg","-3","-2","-1","0","-2","0","-4","1","2018-07-03T15:32:48.357124"
"2018-07-03T15:32:48.363161","emg","-3","1","-3","0","-3","0","1","-6","2018-07-03T15:32:48.361969"
"2018-07-03T15:32:48.363613","emg","-12","12","-1","-1","-2","0","-4","-3","2018-07-03T15:32:48.362540"
"2018-07-03T15:32:48.371607","acc","858","-10","1709","gyro","-161","18","-76","quat","15259","743","-3839","4506","2018-07-03T15:32:48.370493"
"2018-07-03T15:32:48.372730","emg","26","-9","0","-2","-1","-3","0","4","2018-07-03T15:32:48.371848"
"2018-07-03T15:32:48.373089","emg","1","0","0","-1","0","-1","5","-1","2018-07-03T15:32:48.372248"
"2018-07-03T15:32:48.385629","emg","3","7","0","-2","-1","-2","1","0","2018-07-03T15:32:48.384453"
"2018-07-03T15:32:48.385981","emg","1","-4","0","-2","0","2","0","5","2018-07-03T15:32:48.385101"
"2018-07-03T15:32:48.394463","acc","891","-112","1683","gyro","-223","9","-48","quat","15263","706","-3849","4489","2018-07-03T15:32:48.393324"
"2018-07-03T15:32:48.395514","emg","-12","5","-1","1","0","-5","-4","-6","2018-07-03T15:32:48.394699"
"2018-07-03T15:32:48.395860","emg","-1","-5","-2","-1","-1","0","1","7","2018-07-03T15:32:48.395102"
"2018-07-03T15:32:48.409477","emg","3","1","-2","-1","2","0","0","-17","2018-07-03T15:32:48.408332"
"2018-07-03T15:32:48.409836","emg","3","2","1","-1","-2","-2","-1","16","2018-07-03T15:32:48.408950"
"2018-07-03T15:32:48.411050","acc","924","-133","1677","gyro","-138","1","-45","quat","15265","683","-3860","4477","2018-07-03T15:32:48.410229"
"2018-07-03T15:32:48.415688","emg","-6","0","-2","-1","1","2","-1","-2","2018-07-03T15:32:48.414581"
"2018-07-03T15:32:48.416055","emg","-1","-5","-1","-1","0","-1","0","2","2018-07-03T15:32:48.415165"
"2018-07-03T15:32:48.423238","emg","-3","-1","2","1","0","-4","1","6","2018-07-03T15:32:48.422127"
"2018-07-03T15:32:48.424096","emg","7","8","-2","-1","-1","1","-4","-15","2018-07-03T15:32:48.422715"
"2018-07-03T15:32:48.430751","acc","917","-107","1674","gyro","-36","3","-54","quat","15267","679","-3865","4466","2018-07-03T15:32:48.429614"
"2018-07-03T15:32:48.438501","emg","-10","-16","-2","-3","-2","10","8","-8","2018-07-03T15:32:48.437395"
"2018-07-03T15:32:48.438854","emg","-5","-2","-1","-1","-2","-9","-3","9","2018-07-03T15:32:48.437973"
"2018-07-03T15:32:48.446014","emg","-3","5","-1","-1","2","-2","0","-3","2018-07-03T15:32:48.444906"
"2018-07-03T15:32:48.446373","emg","4","2","-1","1","-3","-7","4","-1","2018-07-03T15:32:48.445489"
"2018-07-03T15:32:48.454343","acc","926","-86","1662","gyro","-5","-3","-47","quat","15268","683","-3869","4457","2018-07-03T15:32:48.453193"
"2018-07-03T15:32:48.455438","emg","1","-2","0","1","-1","7","1","-3","2018-07-03T15:32:48.454603"
"2018-07-03T15:32:48.455780","emg","1","-4","-1","-1","-1","-4","-4","-8","2018-07-03T15:32:48.455018"
"2018-07-03T15:32:48.468521","emg","-2","7","-3","-1","-2","7","8","-7","2018-07-03T15:32:48.467531"
