"2018-07-03T15:28:00.175447","emg","-2","-3","-3","-2","-1","0","0","-3","2018-07-03T15:28:00.174383"
"2018-07-03T15:28:00.175760","emg","-8","1","-1","-1","-1","5","-1","-2","2018-07-03T15:28:00.174915"
"2018-07-03T15:28:00.176838","acc","1132","53","1532","gyro","-18","0","3","quat","15434","903","-5002","2089","2018-07-03T15:28:00.176063"
"2018-07-03T15:28:00.182400","emg","-11","-3","0","1","-1","-8","0","-3","2018-07-03T15:28:00.181389"
"2018-07-03T15:28:00.182783","emg","15","1","-1","-1","-1","8","-3","-1","2018-07-03T15:28:00.181926"
"2018-07-03T15:28:00.189807","emg","-10","4","-3","-1","-1","-5","-1","1","2018-07-03T15:28:00.188850"
"2018-07-03T15:28:00.190237","emg","1","1","7","-1","-1","2","-3","-1","2018-07-03T15:28:00.189334"
"2018-07-03T15:28:00.197048","acc","1128","77","1514","gyro","-30","-2","-4","quat","15434","901","-5004","2086","2018-07-03T15:28:00.196101"
"2018-07-03T15:28:00.204964","emg","-4","-1","-5","-3","0","-3","0","-1","2018-07-03T15:28:00.203975"
"2018-07-03T15:28:00.205270","emg","3","2","1","-1","-1","3","-5","1","2018-07-03T15:28:00.204491"
"2018-07-03T15:28:00.211882","emg","2","-3","-2","-1","-2","-11","-1","-3","2018-07-03T15:28:00.211234"
"2018-07-03T15:28:00.212092","emg","-9","-2","-1","-1","-1","8","1","7","2018-07-03T15:28:00.211575"
"2018-07-03T15:28:00.219411","acc","1150","39","1509","gyro","-31","-5","6","quat","15433","895","-5009","2085","2018-07-03T15:28:00.218874"
"2018-07-03T15:28:00.220034","emg","3","-1","2","0","0","6","2","-1","2018-07-03T15:28:00.219594"
"2018-07-03T15:28:00.220186","emg","-5","-1","-3","-1","-2","-5","-2","-8","2018-07-03T15:28:00.219788"
"2018-07-03T15:28:00.234604","emg","-22","-1","-3","-1","1","0","-2","-2","2018-07-03T15:28:00.233943"
"2018-07-03T15:28:00.234797","emg","20","-4","0","-1","-1","3","-1","3","2018-07-03T15:28:00.234237"
"2018-07-03T15:28:00.235265","acc","1155","45","1503","gyro","4","-1","2","quat","15433","895","-5010","2085","2018-07-03T15:28:00.234898"
"2018-07-03T15:28:00.241710","emg","-2","5","11","-1","-1","-14","0","1","2018-07-03T15:28:00.241069"
"2018-07-03T15:28:00.241907","emg","13","-5","-3","-1","-1","5","1","5","2018-07-03T15:28:00.241337"
"2018-07-03T15:28:00.249236","emg","-9","-2","-3","-1","-1","-12","0","-1","2018-07-03T15:28:00.248562"
"2018-07-03T15:28:00.249419","emg","-24","-4","-5","0","0","-3","-1","-2","2018-07-03T15:28:00.248867"
"2018-07-03T15:28:00.256905","acc","1165","52","1528","gyro","16","5","-1","quat","15432","899","-5012","2086","2018-07-03T15:28:00.256184"
"2018-07-03T15:28:00.264690","emg","12","0","-1","-1","-1","4","1","-1","2018-07-03T15:28:00.263694"
"2018-07-03T15:28:00.264944","emg","1","0","3","-3","-2","4","-1","1","2018-07-03T15:28:00.264232"
"2018-07-03T15:28:00.272413","emg","-4","-1","1","-2","-2","-15","-1","-4","2018-07-03T15:28:00.271421"
"2018-07-03T15:28:00.272796","emg","-9","0","1","-13","-4","1","-1","-1","2018-07-03T15:28:00.271900"
"2018-07-03T15:28:00.280712","acc","1149","58","1523","gyro","4","-3","-1","quat","15432","899","-5013","2086","2018-07-03T15:28:00.279707"
"2018-07-03T15:28:00.281618","emg","-5","2","-12","10","-2","-2","-2","-4","2018-07-03T15:28:00.280900"
"2018-07-03T15:28:00.281924","emg","4","-3","1","-2","-35","-1","-1","-2","2018-07-03T15:28:00.281210"
"2018-07-03T15:28:00.295523","emg","5","-12","-3","-18","59","7","1","2","2018-07-03T15:28:00.294446"
"2018-07-03T15:28:00.295887","emg","-1","7","9","18","-10","-2","-3","-5","2018-07-03T15:28:00.294969"
"2018-07-03T15:28:00.296963","acc","1148","97","1583","gyro","-22","-23","8","quat","15431","900","-5016","2085","2018-07-03T15:28:00.296183"
"2018-07-03T15:28:00.302521","emg","4","3","5","-4","-2","3","2","2","2018-07-03T15:28:00.301434"
"2018-07-03T15:28:00.302882","emg","-6","-4","-13","10","18","-1","1","-1","2018-07-03T15:28:00.301960"
"2018-07-03T15:28:00.310144","emg","10","7","18","14","-81","-4","-5","-1","2018-07-03T15:28:00.309041"
"2018-07-03T15:28:00.310510","emg","-2","2","-13","-58","2","-12","-2","-4","2018-07-03T15:28:00.309575"
"2018-07-03T15:28:00.317853","acc","1142","407","1826","gyro","-53","-119","146","quat","15427","916","-5019","2095","2018-07-03T15:28:00.316744"
"2018-07-03T15:28:00.325034","emg","-13","-5","-23","93","109","10","0","-9","2018-07-03T15:28:00.323829"
"2018-07-03T15:28:00.325424","emg","0","10","-29","-88","-7","4","6","2","2018-07-03T15:28:00.324364"
"2018-07-03T15:28:00.332621","emg","9","1","34","52","-27","6","7","6","2018-07-03T15:28:00.331425"
"2018-07-03T15:28:00.333009","emg","28","10","-15","44","14","12","9","34","2018-07-03T15:28:00.331943"
"2018-07-03T15:28:00.341062","acc","1117","1070","1671","gyro","-285","-441","366","quat","15404","950","-5080","2106","2018-07-03T15:28:00.339802"
"2018-07-03T15:28:00.342350","emg","4","-32","-3","-31","42","-4","4","5","2018-07-03T15:28:00.341507"
"2018-07-03T15:28:00.342758","emg","-46","-15","-24","82","38","-11","-34","-54","2018-07-03T15:28:00.341882"
"2018-07-03T15:28:00.355706","emg","-12","-15","-27","-24","-21","0","11","-18","2018-07-03T15:28:00.354525"
"2018-07-03T15:28:00.356275","emg","9","23","1","65","-74","4","-12","2","2018-07-03T15:28:00.355063"
"2018-07-03T15:28:00.357599","acc","1630","379","866","gyro","-2743","136","451","quat","15417","473","-5139","2026","2018-07-03T15:28:00.356833"
"2018-07-03T15:28:00.362646","emg","17","21","42","-36","19","-1","61","2","2018-07-03T15:28:00.361486"
"2018-07-03T15:28:00.363034","emg","-12","-13","11","76","-47","-19","-41","15","2018-07-03T15:28:00.362014"
"2018-07-03T15:28:00.370150","emg","-10","13","0","-119","28","-14","16","-4","2018-07-03T15:28:00.368972"
"2018-07-03T15:28:00.370533","emg","-12","-5","16","116","-34","-5","-75","-9","2018-07-03T15:28:00.369495"
"2018-07-03T15:28:00.377875","acc","2147","-709","1486","gyro","-3337","692","405","quat","15446","-136","-5116","1911","2018-07-03T15:28:00.376810"
"2018-07-03T15:28:00.384883","emg","8","2","-8","-15","93","16","13","6","2018-07-03T15:28:00.383623"
"2018-07-03T15:28:00.385364","emg","32","19","15","-15","-19","16","5","16","2018-07-03T15:28:00.384210"
"2018-07-03T15:28:00.391854","emg","15","7","-11","116","4","-20","10","14","2018-07-03T15:28:00.390916"
"2018-07-03T15:28:00.392209","emg","-3","-5","-13","-128","76","17","21","-1","2018-07-03T15:28:00.391325"
"2018-07-03T15:28:00.400063","acc","2256","-1397","2075","gyro","-1297","1631","686","quat","15509","-448","-4884","1957","2018-07-03T15:28:00.399273"
"2018-07-03T15:28:00.401328","emg","0","-12","3","87","-127","3","-4","11","2018-07-03T15:28:00.400524"
"2018-07-03T15:28:00.401681","emg","9","5","24","-38","-85","5","14","-2","2018-07-03T15:28:00.400927"
"2018-07-03T15:28:00.415518","emg","-34","-38","-42","-114","-110","-32","-32","-10","2018-07-03T15:28:00.414452"
"2018-07-03T15:28:00.416016","emg","1","-35","-25","127","17","-21","13","-18","2018-07-03T15:28:00.414949"
"2018-07-03T15:28:00.417172","acc","1978","-604","2154","gyro","480","2421","556","quat","15619","-453","-4473","2065","2018-07-03T15:28:00.416464"
"2018-07-03T15:28:00.422445","emg","-21","12","2","54","81","14","-25","-17","2018-07-03T15:28:00.421394"
"2018-07-03T15:28:00.422785","emg","15","0","48","-77","-51","29","21","13","2018-07-03T15:28:00.421883"
"2018-07-03T15:28:00.438467","emg","28","16","9","127","119","21","-1","8","2018-07-03T15:28:00.437294"
"2018-07-03T15:28:00.439037","emg","-14","4","27","-128","5","-3","11","-2","2018-07-03T15:28:00.437816"
"2018-07-03T15:28:00.440311","acc","1526","228","2133","gyro","-346","3058","576","quat","15743","-594","-3962","2126","2018-07-03T15:28:00.439537"
"2018-07-03T15:28:00.445226","emg","4","-2","-54","-80","-128","-36","-17","0","2018-07-03T15:28:00.444009"
"2018-07-03T15:28:00.445613","emg","-23","3","-45","114","50","-18","-5","-7","2018-07-03T15:28:00.444540"
"2018-07-03T15:28:00.452489","emg","6","1","23","-124","5","19","-5","0","2018-07-03T15:28:00.451325"
"2018-07-03T15:28:00.452924","emg","-10","11","-3","52","10","-4","4","-10","2018-07-03T15:28:00.451845"
"2018-07-03T15:28:00.461114","acc","1006","-303","1936","gyro","-2022","3441","1016","quat","15839","-1061","-3412","2187","2018-07-03T15:28:00.459846"
"2018-07-03T15:28:00.462386","emg","8","13","8","-17","-55","-14","-18","0","2018-07-03T15:28:00.461547"
"2018-07-03T15:28:00.462792","emg","10","-24","-15","31","40","-20","9","3","2018-07-03T15:28:00.461914"
"2018-07-03T15:28:00.475717","emg","16","13","22","-40","94","50","-6","4","2018-07-03T15:28:00.474548"
"2018-07-03T15:28:00.476282","emg","-10","-7","14","55","-76","-3","31","4","2018-07-03T15:28:00.475064"
"2018-07-03T15:28:00.477586","acc","423","-1124","2014","gyro","-1728","3577","1771","quat","15891","-1525","-2807","2388","2018-07-03T15:28:00.476813"
"2018-07-03T15:28:00.482854","emg","-28","-14","-17","-128","-114","-9","-14","-11","2018-07-03T15:28:00.481685"
"2018-07-03T15:28:00.483265","emg","5","-8","0","86","86","-15","-8","3","2018-07-03T15:28:00.482202"
"2018-07-03T15:28:00.490313","emg","2","-5","-10","-56","35","17","11","6","2018-07-03T15:28:00.489162"
"2018-07-03T15:28:00.490702","emg","-12","14","-11","-9","70","3","-12","-19","2018-07-03T15:28:00.489677"
"2018-07-03T15:28:00.497703","acc","-87","-1016","1908","gyro","-891","3656","2470","quat","15904","-1861","-2143","2728","2018-07-03T15:28:00.496636"
"2018-07-03T15:28:00.505245","emg","7","-1","23","-23","-76","-17","12","3","2018-07-03T15:28:00.504033"
"2018-07-03T15:28:00.505629","emg","-17","3","2","-17","-14","-8","-22","0","2018-07-03T15:28:00.504570"
"2018-07-03T15:28:00.512527","emg","46","15","12","27","-2","-13","4","20","2018-07-03T15:28:00.511354"
"2018-07-03T15:28:00.512961","emg","7","-3","-15","-120","-5","15","5","4","2018-07-03T15:28:00.511880"
"2018-07-03T15:28:00.521100","acc","-519","-873","1813","gyro","-98","3829","2983","quat","15879","-2070","-1403","3164","2018-07-03T15:28:00.519843"
"2018-07-03T15:28:00.522394","emg","-32","8","23","119","36","16","4","-17","2018-07-03T15:28:00.521544"
"2018-07-03T15:28:00.522796","emg","-4","3","-2","-122","-9","4","3","1","2018-07-03T15:28:00.521915"
"2018-07-03T15:28:00.535668","emg","-33","-2","-10","-10","-9","-11","-3","-9","2018-07-03T15:28:00.534474"
"2018-07-03T15:28:00.536235","emg","5","-10","-21","-44","23","-11","3","16","2018-07-03T15:28:00.535030"
"2018-07-03T15:28:00.537564","acc","-817","-825","1720","gyro","353","3966","3353","quat","15805","-2206","-609","3657","2018-07-03T15:28:00.536793"
"2018-07-03T15:28:00.542689","emg","7","0","-2","26","57","7","-12","1","2018-07-03T15:28:00.541518"
"2018-07-03T15:28:00.543075","emg","15","1","5","11","25","9","11","2","2018-07-03T15:28:00.542050"
"2018-07-03T15:28:00.550285","emg","-6","11","0","6","-34","-1","-5","-8","2018-07-03T15:28:00.549094"
"2018-07-03T15:28:00.550673","emg","-2","-12","37","4","-3","-10","-8","-9","2018-07-03T15:28:00.549632"
"2018-07-03T15:28:00.557371","acc","-970","-602","1723","gyro","692","3993","3310","quat","15689","-2272","204","4132","2018-07-03T15:28:00.556261"
"2018-07-03T15:28:00.565103","emg","6","-10","-41","2","12","-2","-4","5","2018-07-03T15:28:00.564029"
"2018-07-03T15:28:00.565466","emg","-9","-1","-18","-5","7","14","6","-6","2018-07-03T15:28:00.564557"
"2018-07-03T15:28:00.572327","emg","-13","-37","-12","52","-58","-16","-5","-9","2018-07-03T15:28:00.571208"
"2018-07-03T15:28:00.572731","emg","-16","-17","16","-19","-3","3","-2","-5","2018-07-03T15:28:00.571795"
"2018-07-03T15:28:00.581035","acc","-934","-351","1613","gyro","726","3870","3246","quat","15526","-2314","992","4584","2018-07-03T15:28:00.579835"
"2018-07-03T15:28:00.582086","emg","5","7","30","18","42","15","-1","1","2018-07-03T15:28:00.581261"
"2018-07-03T15:28:00.582428","emg","2","1","7","-33","-32","-9","6","2","2018-07-03T15:28:00.581668"
"2018-07-03T15:28:00.595609","emg","-12","13","-11","40","11","-12","-9","1","2018-07-03T15:28:00.594495"
"2018-07-03T15:28:00.596002","emg","4","-6","12","10","-11","2","1","-10","2018-07-03T15:28:00.595075"
"2018-07-03T15:28:00.597269","acc","-1108","-197","1534","gyro","699","3727","3099","quat","15324","-2346","1749","5002","2018-07-03T15:28:00.596383"
"2018-07-03T15:28:00.602509","emg","6","-2","15","-11","-4","-10","-5","8","2018-07-03T15:28:00.601392"
"2018-07-03T15:28:00.602869","emg","6","-3","-60","5","17","15","8","11","2018-07-03T15:28:00.601970"
"2018-07-03T15:28:00.610225","emg","-46","5","41","9","-22","-3","-9","-39","2018-07-03T15:28:00.609101"
"2018-07-03T15:28:00.610587","emg","18","-6","-92","-1","-6","-1","-1","9","2018-07-03T15:28:00.609679"
"2018-07-03T15:28:00.617921","acc","-952","-208","1456","gyro","509","3473","3056","quat","15083","-2390","2441","5408","2018-07-03T15:28:00.616786"
"2018-07-03T15:28:00.625115","emg","48","25","12","-32","-2","-5","-1","4","2018-07-03T15:28:00.623972"
"2018-07-03T15:28:00.625475","emg","10","-28","47","-2","-2","-13","-3","-6","2018-07-03T15:28:00.624548"
"2018-07-03T15:28:00.632870","emg","1","-9","-18","2","-2","13","3","10","2018-07-03T15:28:00.631708"
"2018-07-03T15:28:00.633238","emg","10","19","13","18","-15","-8","2","0","2018-07-03T15:28:00.632287"
"2018-07-03T15:28:00.641063","acc","-902","-236","1367","gyro","354","3345","3048","quat","14804","-2447","3092","5806","2018-07-03T15:28:00.639881"
"2018-07-03T15:28:00.642129","emg","-10","3","-18","9","27","4","-10","-8","2018-07-03T15:28:00.641299"
"2018-07-03T15:28:00.642473","emg","14","-11","26","-5","2","5","11","19","2018-07-03T15:28:00.641709"
"2018-07-03T15:28:00.655661","emg","-15","-5","1","-13","-18","-9","0","4","2018-07-03T15:28:00.654544"
"2018-07-03T15:28:00.656020","emg","-10","-14","23","42","21","9","-2","-6","2018-07-03T15:28:00.655136"
"2018-07-03T15:28:00.657240","acc","-1114","-224","1504","gyro","500","3159","2842","quat","14514","-2470","3709","6156","2018-07-03T15:28:00.656413"
"2018-07-03T15:28:00.661874","emg","-26","-7","-16","-19","-8","-14","-5","-22","2018-07-03T15:28:00.661035"
"2018-07-03T15:28:00.662223","emg","2","38","34","-24","-13","1","-1","-3","2018-07-03T15:28:00.661450"
"2018-07-03T15:28:00.678020","emg","10","4","-88","-2","-4","-2","4","25","2018-07-03T15:28:00.676857"
"2018-07-03T15:28:00.678536","emg","-2","19","38","-10","0","0","0","-19","2018-07-03T15:28:00.677437"
"2018-07-03T15:28:00.679838","acc","-1000","-214","1361","gyro","387","2917","2696","quat","14212","-2496","4265","6482","2018-07-03T15:28:00.679087"
"2018-07-03T15:28:00.685094","emg","0","-7","-18","18","8","7","2","4","2018-07-03T15:28:00.683540"
"2018-07-03T15:28:00.685555","emg","8","-12","20","-8","2","-7","-1","-7","2018-07-03T15:28:00.684062"
"2018-07-03T15:28:00.691770","emg","-23","10","31","9","4","2","3","1","2018-07-03T15:28:00.690911"
"2018-07-03T15:28:00.692203","emg","-12","-15","-35","11","-3","2","0","7","2018-07-03T15:28:00.691278"
"2018-07-03T15:28:00.699862","acc","-961","-154","1195","gyro","270","2583","2573","quat","13906","-2518","4750","6791","2018-07-03T15:28:00.699136"
"2018-07-03T15:28:00.700445","emg","-7","-20","-43","-7","2","0","-3","-4","2018-07-03T15:28:00.699993"
"2018-07-03T15:28:00.700671","emg","-19","20","-15","-16","-5","-7","-2","-7","2018-07-03T15:28:00.700226"
"2018-07-03T15:28:00.714818","emg","15","-31","25","-9","-8","-5","-3","18","2018-07-03T15:28:00.714055"
"2018-07-03T15:28:00.715038","emg","-21","15","0","6","7","2","-8","-27","2018-07-03T15:28:00.714418"
"2018-07-03T15:28:00.715659","acc","-984","-8","1186","gyro","174","2345","2430","quat","13601","-2537","5181","7082","2018-07-03T15:28:00.715229"
"2018-07-03T15:28:00.721269","emg","-19","-13","23","-10","-10","-2","0","-12","2018-07-03T15:28:00.720725"
"2018-07-03T15:28:00.721474","emg","36","-2","-2","-11","-1","-6","-3","21","2018-07-03T15:28:00.720975"
"2018-07-03T15:28:00.728751","emg","30","16","17","23","10","7","2","-4","2018-07-03T15:28:00.728196"
"2018-07-03T15:28:00.728953","emg","0","-2","4","3","-11","-7","-3","11","2018-07-03T15:28:00.728435"
"2018-07-03T15:28:00.737546","acc","-1037","-94","1150","gyro","234","1944","1999","quat","13338","-2542","5538","7307","2018-07-03T15:28:00.736491"
"2018-07-03T15:28:00.744913","emg","-27","-47","-7","-17","-8","-5","-6","-2","2018-07-03T15:28:00.743865"
"2018-07-03T15:28:00.745228","emg","-13","0","-30","3","1","7","6","-16","2018-07-03T15:28:00.744358"
"2018-07-03T15:28:00.752279","emg","14","9","13","-19","-8","-10","-6","8","2018-07-03T15:28:00.751229"
"2018-07-03T15:28:00.752625","emg","6","-8","-2","-25","-3","-3","0","17","2018-07-03T15:28:00.751768"
"2018-07-03T15:28:00.760915","acc","-911","-175","1143","gyro","193","1667","1553","quat","13117","-2555","5831","7471","2018-07-03T15:28:00.759796"
"2018-07-03T15:28:00.761985","emg","-1","25","14","36","6","-4","-4","-34","2018-07-03T15:28:00.761161"
"2018-07-03T15:28:00.762417","emg","-36","4","4","-2","-2","11","0","-13","2018-07-03T15:28:00.761515"
"2018-07-03T15:28:00.775649","emg","-9","-13","-16","-2","3","9","-1","5","2018-07-03T15:28:00.774383"
"2018-07-03T15:28:00.776247","emg","10","24","2","14","-3","-18","2","17","2018-07-03T15:28:00.774987"
"2018-07-03T15:28:00.777651","acc","-982","46","1180","gyro","184","1478","1242","quat","12933","-2569","6070","7596","2018-07-03T15:28:00.776832"
"2018-07-03T15:28:00.782625","emg","-7","6","-2","-12","-6","-17","-4","19","2018-07-03T15:28:00.781463"
"2018-07-03T15:28:00.783008","emg","-1","-2","1","9","17","22","4","-10","2018-07-03T15:28:00.781984"
"2018-07-03T15:28:00.790264","emg","11","11","-12","-6","-8","7","5","-10","2018-07-03T15:28:00.789100"
"2018-07-03T15:28:00.790643","emg","11","3","10","15","4","7","4","7","2018-07-03T15:28:00.789625"
"2018-07-03T15:28:00.797604","acc","-1020","127","1065","gyro","57","1156","950","quat","12782","-2592","6253","7694","2018-07-03T15:28:00.796503"
"2018-07-03T15:28:00.805060","emg","12","0","26","-14","-4","-9","-1","0","2018-07-03T15:28:00.803851"
"2018-07-03T15:28:00.805443","emg","-2","-2","-4","-8","-7","-14","-5","-7","2018-07-03T15:28:00.804374"
"2018-07-03T15:28:00.812581","emg","-13","-14","-34","-9","4","-3","-3","-7","2018-07-03T15:28:00.811421"
"2018-07-03T15:28:00.813010","emg","7","1","16","-6","3","13","2","-3","2018-07-03T15:28:00.811943"
"2018-07-03T15:28:00.821174","acc","-1066","233","1048","gyro","-93","750","772","quat","12665","-2607","6366","7791","2018-07-03T15:28:00.819923"
"2018-07-03T15:28:00.822465","emg","7","-8","8","34","-1","4","4","18","2018-07-03T15:28:00.821623"
"2018-07-03T15:28:00.822867","emg","5","4","3","-2","-4","-13","-6","17","2018-07-03T15:28:00.821995"
"2018-07-03T15:28:00.835722","emg","-1","1","2","-1","-4","-10","-7","-22","2018-07-03T15:28:00.834487"
"2018-07-03T15:28:00.836306","emg","-21","-21","11","-3","-3","7","1","-16","2018-07-03T15:28:00.835086"
"2018-07-03T15:28:00.837616","acc","-1045","315","993","gyro","-73","316","578","quat","12591","-2591","6419","7872","2018-07-03T15:28:00.836851"
"2018-07-03T15:28:00.842322","emg","-11","4","-1","-15","8","6","-3","-3","2018-07-03T15:28:00.841167"
"2018-07-03T15:28:00.842708","emg","6","-2","-12","-11","-20","-74","-15","9","2018-07-03T15:28:00.841682"
"2018-07-03T15:28:00.858185","emg","7","6","28","48","34","95","1","10","2018-07-03T15:28:00.857031"
"2018-07-03T15:28:00.858756","emg","-2","-6","-15","-5","-10","-42","16","6","2018-07-03T15:28:00.857547"
"2018-07-03T15:28:00.860015","acc","-1175","389","1002","gyro","-227","-13","379","quat","12548","-2581","6416","7946","2018-07-03T15:28:00.859257"
"2018-07-03T15:28:00.865204","emg","-7","-3","-8","-23","-8","24","11","3","2018-07-03T15:28:00.863999"
"2018-07-03T15:28:00.865585","emg","0","-3","-8","0","3","-3","-38","21","2018-07-03T15:28:00.864534"
"2018-07-03T15:28:00.872579","emg","-5","-3","-4","-6","-7","-1","25","-36","2018-07-03T15:28:00.871412"
"2018-07-03T15:28:00.873007","emg","6","0","-6","6","3","-1","-9","-12","2018-07-03T15:28:00.871935"
"2018-07-03T15:28:00.879769","acc","-1096","313","1026","gyro","-522","-204","172","quat","12531","-2612","6347","8017","2018-07-03T15:28:00.878721"
"2018-07-03T15:28:00.887418","emg","-2","4","4","-11","-4","-13","2","12","2018-07-03T15:28:00.886254"
"2018-07-03T15:28:00.887830","emg","-24","-3","-9","3","1","13","2","-13","2018-07-03T15:28:00.886786"
"2018-07-03T15:28:00.895742","emg","10","4","-2","-11","-9","-43","-19","6","2018-07-03T15:28:00.894549"
"2018-07-03T15:28:00.896320","emg","11","3","-12","1","3","24","-12","-4","2018-07-03T15:28:00.895075"
"2018-07-03T15:28:00.898768","acc","-1202","257","1056","gyro","-549","-340","-1","quat","12537","-2653","6255","8066","2018-07-03T15:28:00.896980"
"2018-07-03T15:28:00.902219","emg","-2","12","1","0","-4","-5","13","8","2018-07-03T15:28:00.901179"
"2018-07-03T15:28:00.902606","emg","28","-11","20","7","5","6","3","3","2018-07-03T15:28:00.901671"
"2018-07-03T15:28:00.918004","emg","1","7","-18","0","7","-4","-5","-2","2018-07-03T15:28:00.916923"
"2018-07-03T15:28:00.918373","emg","-34","-4","4","0","-18","-16","2","7","2018-07-03T15:28:00.917437"
"2018-07-03T15:28:00.919385","acc","-1401","283","1154","gyro","-374","-512","-181","quat","12573","-2670","6156","8081","2018-07-03T15:28:00.918645"
"2018-07-03T15:28:00.925077","emg","1","-2","-4","-13","3","2","-13","-3","2018-07-03T15:28:00.923962"
"2018-07-03T15:28:00.925437","emg","2","2","-9","-3","-4","-10","7","-4","2018-07-03T15:28:00.924481"
"2018-07-03T15:28:00.931923","emg","9","-4","-1","14","8","-24","-4","-3","2018-07-03T15:28:00.931020"
"2018-07-03T15:28:00.932272","emg","2","2","-6","-11","-8","-3","1","7","2018-07-03T15:28:00.931439"
"2018-07-03T15:28:00.940159","acc","-1469","198","1181","gyro","-216","-684","-293","quat","12634","-2666","6044","8071","2018-07-03T15:28:00.939091"
"2018-07-03T15:28:00.947290","emg","-19","-2","7","10","10","3","-22","-13","2018-07-03T15:28:00.946200"
"2018-07-03T15:28:00.947655","emg","35","1","-6","-2","-6","40","29","-11","2018-07-03T15:28:00.946724"
"2018-07-03T15:28:00.955572","emg","18","-6","-5","-7","-3","-28","-13","5","2018-07-03T15:28:00.954480"
"2018-07-03T15:28:00.955937","emg","-5","-10","-6","0","-6","6","4","1","2018-07-03T15:28:00.955000"
"2018-07-03T15:28:00.957058","acc","-1534","196","1203","gyro","-88","-702","-384","quat","12706","-2650","5943","8040","2018-07-03T15:28:00.956202"
"2018-07-03T15:28:00.961936","emg","-26","9","24","6","-1","-8","-4","4","2018-07-03T15:28:00.961065"
"2018-07-03T15:28:00.962323","emg","10","12","-8","-10","-1","-13","-2","-1","2018-07-03T15:28:00.961462"
"2018-07-03T15:28:00.977526","emg","-23","-5","8","3","-10","-10","-2","2","2018-07-03T15:28:00.976682"
"2018-07-03T15:28:00.977837","emg","12","10","4","-3","10","-4","-8","-5","2018-07-03T15:28:00.977084"
"2018-07-03T15:28:00.978832","acc","-1427","229","1193","gyro","-187","-687","-384","quat","12773","-2643","5833","8016","2018-07-03T15:28:00.978185"
"2018-07-03T15:28:00.984270","emg","15","1","1","-3","11","27","5","-6","2018-07-03T15:28:00.983463"
"2018-07-03T15:28:00.984574","emg","-6","0","2","19","0","3","9","-2","2018-07-03T15:28:00.983834"
"2018-07-03T15:28:00.991735","emg","30","-7","-4","-19","-22","-11","7","14","2018-07-03T15:28:00.990967"
"2018-07-03T15:28:00.992044","emg","-13","1","10","-3","10","-42","-7","-5","2018-07-03T15:28:00.991313"
"2018-07-03T15:28:00.999775","acc","-1455","168","1241","gyro","-146","-673","-505","quat","12850","-2643","5724","7971","2018-07-03T15:28:00.998819"
"2018-07-03T15:28:01.007065","emg","6","-9","-20","8","-12","-2","-1","0","2018-07-03T15:28:01.006042"
"2018-07-03T15:28:01.007375","emg","-14","-7","11","0","10","-8","-5","-22","2018-07-03T15:28:01.006549"
"2018-07-03T15:28:01.015298","emg","-18","-9","-4","-1","-3","20","4","23","2018-07-03T15:28:01.014304"
"2018-07-03T15:28:01.015623","emg","-2","-3","-11","-7","-14","-13","-3","-9","2018-07-03T15:28:01.014786"
"2018-07-03T15:28:01.016502","acc","-1263","178","1269","gyro","-77","-642","-491","quat","12929","-2627","5616","7926","2018-07-03T15:28:01.015865"
"2018-07-03T15:28:01.022426","emg","15","4","-2","-9","0","-8","-5","1","2018-07-03T15:28:01.021422"
"2018-07-03T15:28:01.022774","emg","-14","-5","-4","4","-4","-23","-4","7","2018-07-03T15:28:01.021910"
"2018-07-03T15:28:01.038500","emg","1","4","-3","-7","-9","-19","-16","-17","2018-07-03T15:28:01.037269"
"2018-07-03T15:28:01.039071","emg","2","8","-1","2","6","29","7","-5","2018-07-03T15:28:01.037868"
"2018-07-03T15:28:01.040361","acc","-1293","139","1312","gyro","-64","-601","-461","quat","13002","-2612","5515","7882","2018-07-03T15:28:01.039589"
"2018-07-03T15:28:01.044469","emg","12","-1","17","-3","4","-4","6","7","2018-07-03T15:28:01.043539"
"2018-07-03T15:28:01.044919","emg","-15","-6","-62","0","1","18","2","-8","2018-07-03T15:28:01.043950"
"2018-07-03T15:28:01.052461","emg","-17","1","50","8","7","-11","-5","0","2018-07-03T15:28:01.051334"
"2018-07-03T15:28:01.052897","emg","7","3","-12","-1","-9","5","-3","2","2018-07-03T15:28:01.051814"
"2018-07-03T15:28:01.059999","acc","-1445","141","1356","gyro","-29","-575","-467","quat","13071","-2600","5429","7831","2018-07-03T15:28:01.058900"
"2018-07-03T15:28:01.067435","emg","18","9","20","5","-5","1","1","-3","2018-07-03T15:28:01.066276"
"2018-07-03T15:28:01.067817","emg","-10","-8","-12","-14","-3","-7","0","8","2018-07-03T15:28:01.066790"
"2018-07-03T15:28:01.075694","emg","9","-6","-6","7","13","18","6","-5","2018-07-03T15:28:01.074532"
"2018-07-03T15:28:01.076258","emg","-14","-8","1","0","-2","6","-3","-7","2018-07-03T15:28:01.075054"
"2018-07-03T15:28:01.077558","acc","-1604","113","1355","gyro","99","-600","-501","quat","13144","-2577","5359","7765","2018-07-03T15:28:01.076798"
"2018-07-03T15:28:01.082654","emg","-3","-4","-9","-20","-9","1","4","9","2018-07-03T15:28:01.081490"
"2018-07-03T15:28:01.083042","emg","-15","0","-10","-3","-2","0","-7","-1","2018-07-03T15:28:01.082020"
"2018-07-03T15:28:01.098482","emg","1","2","-16","4","-4","1","5","11","2018-07-03T15:28:01.097288"
"2018-07-03T15:28:01.099072","emg","15","3","23","11","12","19","4","-17","2018-07-03T15:28:01.097811"
"2018-07-03T15:28:01.100348","acc","-1629","139","1363","gyro","111","-541","-389","quat","13202","-2549","5305","7712","2018-07-03T15:28:01.099555"
"2018-07-03T15:28:01.105094","emg","-23","-6","-22","-12","-2","-10","-4","4","2018-07-03T15:28:01.103990"
"2018-07-03T15:28:01.105480","emg","10","6","31","2","-3","1","-1","0","2018-07-03T15:28:01.104455"
"2018-07-03T15:28:01.112479","emg","-7","-7","-35","-18","-9","3","-1","-8","2018-07-03T15:28:01.111426"
"2018-07-03T15:28:01.112850","emg","15","4","25","19","6","1","0","9","2018-07-03T15:28:01.111910"
"2018-07-03T15:28:01.119684","acc","-1562","125","1383","gyro","-40","-379","-264","quat","13237","-2547","5260","7683","2018-07-03T15:28:01.118680"
"2018-07-03T15:28:01.127227","emg","-1","4","-2","0","3","-1","2","-5","2018-07-03T15:28:01.126176"
"2018-07-03T15:28:01.127562","emg","-7","7","-13","5","4","10","1","-5","2018-07-03T15:28:01.126663"
"2018-07-03T15:28:01.135382","emg","-2","-4","36","-11","-2","-1","1","-1","2018-07-03T15:28:01.134332"
"2018-07-03T15:28:01.135873","emg","-34","10","-33","4","1","-3","-4","1","2018-07-03T15:28:01.134815"
"2018-07-03T15:28:01.137019","acc","-1548","105","1452","gyro","-48","-193","-160","quat","13254","-2555","5240","7665","2018-07-03T15:28:01.136326"
"2018-07-03T15:28:01.142299","emg","6","-12","5","-3","0","10","2","-8","2018-07-03T15:28:01.141254"
"2018-07-03T15:28:01.142631","emg","1","1","4","-2","-3","2","1","1","2018-07-03T15:28:01.141727"
"2018-07-03T15:28:01.158435","emg","20","41","48","13","1","-5","0","-1","2018-07-03T15:28:01.157288"
"2018-07-03T15:28:01.159011","emg","-10","-27","-8","-52","-9","-6","-6","1","2018-07-03T15:28:01.157800"
"2018-07-03T15:28:01.160383","acc","-1647","116","1450","gyro","137","-39","-102","quat","13261","-2548","5265","7638","2018-07-03T15:28:01.159507"
"2018-07-03T15:28:01.165269","emg","8","3","72","86","16","13","4","1","2018-07-03T15:28:01.164014"
"2018-07-03T15:28:01.165726","emg","-13","-21","-38","-37","-12","-10","-3","-3","2018-07-03T15:28:01.164631"
"2018-07-03T15:28:01.172684","emg","-21","-4","-6","-22","-11","-3","0","-6","2018-07-03T15:28:01.171409"
"2018-07-03T15:28:01.173071","emg","16","-13","3","0","0","2","-3","2","2018-07-03T15:28:01.171996"
"2018-07-03T15:28:01.180193","acc","-1667","121","1436","gyro","269","129","-12","quat","13254","-2532","5328","7613","2018-07-03T15:28:01.179021"
"2018-07-03T15:28:01.187183","emg","3","13","24","-18","-15","-10","-1","4","2018-07-03T15:28:01.186193"
"2018-07-03T15:28:01.187573","emg","-4","0","-6","28","17","15","2","-5","2018-07-03T15:28:01.186639"
"2018-07-03T15:28:01.195041","emg","-6","-6","-23","-5","1","1","2","-4","2018-07-03T15:28:01.194128"
"2018-07-03T15:28:01.195535","emg","-2","10","12","6","-5","-1","1","3","2018-07-03T15:28:01.194516"
"2018-07-03T15:28:01.196276","acc","-1618","165","1355","gyro","149","223","200","quat","13219","-2526","5402","7623","2018-07-03T15:28:01.195555"
"2018-07-03T15:28:01.202285","emg","9","-21","-49","-31","-16","-15","-3","1","2018-07-03T15:28:01.201370"
"2018-07-03T15:28:01.202567","emg","1","-16","15","23","19","12","2","-3","2018-07-03T15:28:01.201880"
"2018-07-03T15:28:01.218144","emg","-9","18","-13","-2","2","6","-1","-4","2018-07-03T15:28:01.217161"
"2018-07-03T15:28:01.218467","emg","-2","-4","8","21","12","9","2","-1","2018-07-03T15:28:01.217635"
"2018-07-03T15:28:01.219352","acc","-1599","218","1321","gyro","-34","351","432","quat","13152","-2539","5486","7674","2018-07-03T15:28:01.218700"
"2018-07-03T15:28:01.224902","emg","2","-4","-38","-8","-8","-6","-1","-1","2018-07-03T15:28:01.223863"
"2018-07-03T15:28:01.225218","emg","9","7","65","-2","-7","-1","0","3","2018-07-03T15:28:01.224356"
"2018-07-03T15:28:01.232292","emg","-3","-14","-16","5","3","1","-2","-3","2018-07-03T15:28:01.231283"
"2018-07-03T15:28:01.232637","emg","7","-29","-65","-6","-10","-5","-2","2","2018-07-03T15:28:01.231777"
"2018-07-03T15:28:01.239820","acc","-1664","157","1352","gyro","-191","521","492","quat","13066","-2592","5580","7736","2018-07-03T15:28:01.238862"
"2018-07-03T15:28:01.247115","emg","-7","10","-22","-16","3","2","0","-7","2018-07-03T15:28:01.246110"
"2018-07-03T15:28:01.247426","emg","8","16","36","-4","-4","-4","-1","7","2018-07-03T15:28:01.246601"
"2018-07-03T15:28:01.255490","emg","-7","-7","-15","8","6","2","-1","-8","2018-07-03T15:28:01.254393"
"2018-07-03T15:28:01.255863","emg","-5","0","-2","4","-5","-1","-1","-2","2018-07-03T15:28:01.254926"
"2018-07-03T15:28:01.257157","acc","-1657","79","1249","gyro","-209","624","520","quat","12970","-2661","5686","7797","2018-07-03T15:28:01.256298"
"2018-07-03T15:28:01.262621","emg","5","0","-7","-7","6","1","-3","-6","2018-07-03T15:28:01.261614"
"2018-07-03T15:28:01.262959","emg","5","-9","-17","-7","-6","-4","3","11","2018-07-03T15:28:01.262065"
"2018-07-03T15:28:01.278493","emg","-3","-7","49","-11","-10","-8","-7","-2","2018-07-03T15:28:01.277320"
"2018-07-03T15:28:01.279069","emg","3","11","-10","25","10","11","4","-4","2018-07-03T15:28:01.277836"
"2018-07-03T15:28:01.280295","acc","-1531","222","1260","gyro","-108","709","594","quat","12865","-2702","5809","7865","2018-07-03T15:28:01.279565"
"2018-07-03T15:28:01.285209","emg","-14","15","-43","-18","-4","-4","-1","-3","2018-07-03T15:28:01.283999"
"2018-07-03T15:28:01.285616","emg","4","-6","4","-7","6","0","-4","-6","2018-07-03T15:28:01.284524"
"2018-07-03T15:28:01.292570","emg","-5","3","18","11","-3","7","5","4","2018-07-03T15:28:01.291473"
"2018-07-03T15:28:01.292946","emg","3","7","42","7","0","0","-1","0","2018-07-03T15:28:01.292011"
"2018-07-03T15:28:01.299864","acc","-1433","212","1233","gyro","-53","756","587","quat","12761","-2737","5936","7927","2018-07-03T15:28:01.298911"
"2018-07-03T15:28:01.307239","emg","21","7","14","-7","-10","-12","-4","4","2018-07-03T15:28:01.306054"
"2018-07-03T15:28:01.307631","emg","-9","1","-21","-7","-3","-4","-5","-4","2018-07-03T15:28:01.306598"
"2018-07-03T15:28:01.315494","emg","-3","-4","4","20","9","14","4","-2","2018-07-03T15:28:01.314354"
"2018-07-03T15:28:01.316071","emg","-2","0","-46","-22","-10","-11","-4","2","2018-07-03T15:28:01.314844"
"2018-07-03T15:28:01.317343","acc","-1289","200","1247","gyro","-88","830","519","quat","12660","-2783","6056","7982","2018-07-03T15:28:01.316579"
"2018-07-03T15:28:01.322623","emg","5","-6","-9","-1","7","4","1","3","2018-07-03T15:28:01.321458"
"2018-07-03T15:28:01.323001","emg","-8","1","19","7","-17","-5","1","-3","2018-07-03T15:28:01.322060"
"2018-07-03T15:28:01.338415","emg","4","-2","-14","0","2","-5","-3","-3","2018-07-03T15:28:01.337266"
"2018-07-03T15:28:01.338989","emg","-1","-2","13","-1","-1","-1","1","2","2018-07-03T15:28:01.337784"
"2018-07-03T15:28:01.340246","acc","-1316","99","1176","gyro","-14","774","462","quat","12570","-2827","6171","8021","2018-07-03T15:28:01.339497"
"2018-07-03T15:28:01.345044","emg","-1","-2","9","-5","-6","-7","-1","4","2018-07-03T15:28:01.343838"
"2018-07-03T15:28:01.345445","emg","-9","-7","-14","-11","-7","-10","-4","-5","2018-07-03T15:28:01.344358"
"2018-07-03T15:28:01.352631","emg","-2","-5","-12","1","-4","5","0","-4","2018-07-03T15:28:01.351437"
"2018-07-03T15:28:01.353105","emg","0","8","15","15","5","0","2","0","2018-07-03T15:28:01.351959"
"2018-07-03T15:28:01.360112","acc","-1286","225","1160","gyro","-56","589","469","quat","12488","-2850","6259","8072","2018-07-03T15:28:01.359046"
"2018-07-03T15:28:01.367293","emg","-13","-14","-2","-5","1","1","-3","-4","2018-07-03T15:28:01.366120"
"2018-07-03T15:28:01.367674","emg","6","11","3","11","6","11","6","-2","2018-07-03T15:28:01.366645"
"2018-07-03T15:28:01.376421","emg","0","1","-19","-10","-10","-10","-3","6","2018-07-03T15:28:01.375249"
"2018-07-03T15:28:01.377040","emg","2","-4","9","-21","-6","-17","-7","-5","2018-07-03T15:28:01.375772"
"2018-07-03T15:28:01.378312","acc","-1168","164","1116","gyro","-147","443","354","quat","12425","-2882","6309","8119","2018-07-03T15:28:01.377544"
"2018-07-03T15:28:01.381868","emg","-2","-1","13","26","4","6","6","-7","2018-07-03T15:28:01.381066"
"2018-07-03T15:28:01.382292","emg","-18","-10","-7","-3","-3","12","2","-2","2018-07-03T15:28:01.381421"
"2018-07-03T15:28:01.397757","emg","4","-9","-10","-4","9","8","-3","5","2018-07-03T15:28:01.396729"
"2018-07-03T15:28:01.398388","emg","6","-1","2","-4","-10","-2","-3","6","2018-07-03T15:28:01.397210"
"2018-07-03T15:28:01.399953","acc","-1231","103","1157","gyro","-174","319","263","quat","12380","-2919","6334","8156","2018-07-03T15:28:01.398943"
"2018-07-03T15:28:01.404734","emg","-6","-1","-3","-8","1","-9","-6","-3","2018-07-03T15:28:01.403499"
"2018-07-03T15:28:01.405123","emg","13","-1","-9","-3","-14","6","-6","-1","2018-07-03T15:28:01.404094"
"2018-07-03T15:28:01.412310","emg","-5","-6","-5","-4","-1","-43","4","8","2018-07-03T15:28:01.411312"
"2018-07-03T15:28:01.412664","emg","-5","1","1","-3","-4","7","-1","-14","2018-07-03T15:28:01.411852"
"2018-07-03T15:28:01.419896","acc","-1230","201","1120","gyro","-172","115","206","quat","12350","-2934","6336","8194","2018-07-03T15:28:01.418870"
"2018-07-03T15:28:01.427248","emg","-11","-4","8","17","13","-10","-30","-4","2018-07-03T15:28:01.426126"
"2018-07-03T15:28:01.427608","emg","-13","-5","-5","-10","-2","26","24","-4","2018-07-03T15:28:01.426717"
"2018-07-03T15:28:01.435598","emg","-9","-7","-18","-11","-8","-3","-2","-5","2018-07-03T15:28:01.434490"
"2018-07-03T15:28:01.435958","emg","6","-7","0","7","5","-37","-10","4","2018-07-03T15:28:01.435067"
"2018-07-03T15:28:01.437220","acc","-1221","208","1151","gyro","-221","-26","87","quat","12340","-2950","6309","8225","2018-07-03T15:28:01.436348"
"2018-07-03T15:28:01.442596","emg","2","4","1","-1","-4","52","17","4","2018-07-03T15:28:01.441509"
"2018-07-03T15:28:01.442957","emg","3","7","-2","-6","2","-22","-8","-1","2018-07-03T15:28:01.442030"
"2018-07-03T15:28:01.457946","emg","3","12","17","14","17","15","-6","-5","2018-07-03T15:28:01.456873"
"2018-07-03T15:28:01.458315","emg","-11","-1","3","9","-7","7","6","0","2018-07-03T15:28:01.457389"
"2018-07-03T15:28:01.459346","acc","-1315","147","1201","gyro","-122","-169","-115","quat","12361","-2960","6264","8223","2018-07-03T15:28:01.458581"
"2018-07-03T15:28:01.465362","emg","-13","-11","-12","-17","-10","-2","-6","-1","2018-07-03T15:28:01.464259"
"2018-07-03T15:28:01.465724","emg","7","-1","2","11","5","-30","-6","2","2018-07-03T15:28:01.464803"
"2018-07-03T15:28:01.472459","emg","10","1","-9","-9","-7","7","-4","-6","2018-07-03T15:28:01.471367"
"2018-07-03T15:28:01.472860","emg","-4","0","2","-8","0","6","6","3","2018-07-03T15:28:01.471892"
"2018-07-03T15:28:01.480065","acc","-1389","157","1208","gyro","8","-267","-276","quat","12406","-2956","6217","8193","2018-07-03T15:28:01.478980"
"2018-07-03T15:28:01.487374","emg","3","2","5","3","8","-38","-7","-2","2018-07-03T15:28:01.486245"
"2018-07-03T15:28:01.487737","emg","2","-5","-4","-3","-4","15","-1","0","2018-07-03T15:28:01.486774"
"2018-07-03T15:28:01.495541","emg","-6","-8","-5","2","4","-8","4","-1","2018-07-03T15:28:01.494457"
"2018-07-03T15:28:01.495905","emg","-1","6","-1","1","4","8","-35","-5","2018-07-03T15:28:01.494981"
"2018-07-03T15:28:01.496977","acc","-1482","129","1212","gyro","33","-281","-343","quat","12456","-2957","6172","8150","2018-07-03T15:28:01.496170"
"2018-07-03T15:28:01.501742","emg","5","6","5","-1","3","21","41","0","2018-07-03T15:28:01.500957"
"2018-07-03T15:28:01.502047","emg","-1","-1","2","0","3","-25","-11","3","2018-07-03T15:28:01.501322"
"2018-07-03T15:28:01.517575","emg","10","-2","-8","-8","-10","8","2","11","2018-07-03T15:28:01.516676"
"2018-07-03T15:28:01.517892","emg","-14","-5","6","7","14","-3","1","-25","2018-07-03T15:28:01.517101"
"2018-07-03T15:28:01.518778","acc","-1470","104","1215","gyro","-26","-219","-391","quat","12505","-2975","6128","8102","2018-07-03T15:28:01.518135"
"2018-07-03T15:28:01.524898","emg","-4","-5","-3","-2","-9","0","-11","-1","2018-07-03T15:28:01.523871"
"2018-07-03T15:28:01.525225","emg","-4","1","3","-2","-1","2","0","-1","2018-07-03T15:28:01.524356"
"2018-07-03T15:28:01.532076","emg","7","4","2","21","6","-29","4","5","2018-07-03T15:28:01.531076"
"2018-07-03T15:28:01.532391","emg","6","-3","-8","-14","-6","26","1","8","2018-07-03T15:28:01.531561"
"2018-07-03T15:28:01.539840","acc","-1514","146","1191","gyro","-23","-170","-373","quat","12545","-2994","6098","8055","2018-07-03T15:28:01.538866"
"2018-07-03T15:28:01.546981","emg","-2","3","-4","0","1","-9","-5","-7","2018-07-03T15:28:01.546019"
"2018-07-03T15:28:01.547296","emg","-3","1","7","0","-6","3","-2","-5","2018-07-03T15:28:01.546478"
"2018-07-03T15:28:01.555293","emg","-10","-6","-6","-5","-3","-13","-6","-5","2018-07-03T15:28:01.554292"
"2018-07-03T15:28:01.555608","emg","17","1","-3","-4","-2","10","4","4","2018-07-03T15:28:01.554775"
"2018-07-03T15:28:01.556479","acc","-1385","235","1199","gyro","-96","-167","-373","quat","12583","-3011","6060","8018","2018-07-03T15:28:01.555839"
"2018-07-03T15:28:01.562395","emg","0","-4","-1","-2","-1","-6","-1","1","2018-07-03T15:28:01.561401"
"2018-07-03T15:28:01.562715","emg","-25","-3","-5","1","-1","-25","-4","-1","2018-07-03T15:28:01.561895"
"2018-07-03T15:28:01.578390","emg","-11","0","3","-4","-3","35","7","-7","2018-07-03T15:28:01.577311"
"2018-07-03T15:28:01.578754","emg","8","-6","9","0","-4","-26","-3","0","2018-07-03T15:28:01.577828"
"2018-07-03T15:28:01.579800","acc","-1351","172","1223","gyro","-162","-261","-412","quat","12630","-3034","5997","7983","2018-07-03T15:28:01.579027"
"2018-07-03T15:28:01.585104","emg","14","2","-30","-7","-7","1","0","5","2018-07-03T15:28:01.584007"
"2018-07-03T15:28:01.585469","emg","9","3","22","4","1","-5","-10","5","2018-07-03T15:28:01.584533"
"2018-07-03T15:28:01.592557","emg","-7","1","1","-1","1","10","1","-15","2018-07-03T15:28:01.591470"
"2018-07-03T15:28:01.593021","emg","-11","4","9","2","-9","-4","9","-1","2018-07-03T15:28:01.591999"
"2018-07-03T15:28:01.600004","acc","-1356","125","1253","gyro","-31","-344","-474","quat","12693","-3037","5930","7931","2018-07-03T15:28:01.598927"
"2018-07-03T15:28:01.607435","emg","9","-9","8","-2","3","32","-3","2","2018-07-03T15:28:01.606362"
"2018-07-03T15:28:01.607867","emg","-8","-1","6","15","6","19","-4","-3","2018-07-03T15:28:01.606885"
"2018-07-03T15:28:01.615559","emg","1","-7","-3","-7","-16","-73","-31","0","2018-07-03T15:28:01.614471"
"2018-07-03T15:28:01.615923","emg","3","-6","-10","-11","4","53","9","10","2018-07-03T15:28:01.614998"
"2018-07-03T15:28:01.616984","acc","-1505","110","1263","gyro","115","-415","-570","quat","12770","-3026","5870","7856","2018-07-03T15:28:01.616184"
"2018-07-03T15:28:01.622537","emg","-8","3","9","15","11","13","34","-8","2018-07-03T15:28:01.621450"
"2018-07-03T15:28:01.622894","emg","9","-1","-8","0","-5","-22","-4","0","2018-07-03T15:28:01.621980"
"2018-07-03T15:28:01.638330","emg","-2","0","9","-3","3","14","1","0","2018-07-03T15:28:01.637243"
"2018-07-03T15:28:01.638695","emg","-4","4","-8","-7","-5","-15","-7","-4","2018-07-03T15:28:01.637761"
"2018-07-03T15:28:01.639725","acc","-1529","87","1271","gyro","137","-415","-628","quat","12851","-3017","5812","7771","2018-07-03T15:28:01.638954"
"2018-07-03T15:28:01.644982","emg","1","-3","-9","-4","-5","-18","-15","5","2018-07-03T15:28:01.643923"
"2018-07-03T15:28:01.645346","emg","-2","-3","-9","-5","2","-24","-4","-6","2018-07-03T15:28:01.644419"
"2018-07-03T15:28:01.660982","acc","-1431","66","1269","gyro","92","-404","-543","quat","12923","-3008","5749","7701","2018-07-03T15:28:01.659885"
"2018-07-03T15:28:01.662074","emg","-22","-7","-5","5","2","20","10","-11","2018-07-03T15:28:01.661230"
"2018-07-03T15:28:01.662425","emg","9","6","2","-2","-1","-6","3","6","2018-07-03T15:28:01.661586"
"2018-07-03T15:28:01.667386","emg","-9","4","9","2","-2","-17","-7","-5","2018-07-03T15:28:01.666134"
"2018-07-03T15:28:01.667787","emg","7","1","-11","-1","2","18","6","9","2018-07-03T15:28:01.666751"
"2018-07-03T15:28:01.675799","acc","-1375","59","1272","gyro","143","-400","-466","quat","12991","-2985","5692","7638","2018-07-03T15:28:01.674580"
"2018-07-03T15:28:01.677125","emg","14","-4","-21","-36","-19","-7","-7","3","2018-07-03T15:28:01.676243"
"2018-07-03T15:28:01.677536","emg","-5","-6","10","29","16","7","10","-1","2018-07-03T15:28:01.676653"
"2018-07-03T15:28:01.681996","emg","-7","5","22","13","0","-16","-8","-8","2018-07-03T15:28:01.681070"
"2018-07-03T15:28:01.682433","emg","0","3","-10","-5","-4","-12","-7","-8","2018-07-03T15:28:01.681488"
"2018-07-03T15:28:01.697773","acc","-1341","64","1294","gyro","192","-431","-471","quat","13062","-2951","5633","7573","2018-07-03T15:28:01.696782"
"2018-07-03T15:28:01.698908","emg","-2","1","6","-9","-2","-30","-5","0","2018-07-03T15:28:01.698145"
"2018-07-03T15:28:01.699285","emg","-1","-4","-10","-18","-11","11","1","0","2018-07-03T15:28:01.698513"
"2018-07-03T15:28:01.704221","emg","-3","-3","-9","9","12","2","2","6","2018-07-03T15:28:01.703405"
"2018-07-03T15:28:01.704537","emg","-5","-8","-2","5","4","15","2","-3","2018-07-03T15:28:01.703764"
"2018-07-03T15:28:01.721416","acc","-1409","30","1316","gyro","155","-461","-544","quat","13138","-2928","5567","7499","2018-07-03T15:28:01.720104"
"2018-07-03T15:28:01.723321","emg","4","-10","-21","-4","-3","4","1","-9","2018-07-03T15:28:01.722263"
"2018-07-03T15:28:01.723655","emg","2","-2","33","-12","-11","-28","-6","3","2018-07-03T15:28:01.722821"
"2018-07-03T15:28:01.727595","emg","0","3","-14","1","2","1","-5","1","2018-07-03T15:28:01.726488"
"2018-07-03T15:28:01.728054","emg","-1","1","-5","-3","1","13","3","-2","2018-07-03T15:28:01.727037"
"2018-07-03T15:28:01.735082","acc","-1529","14","1343","gyro","188","-438","-589","quat","13214","-2909","5511","7414","2018-07-03T15:28:01.734258"
"2018-07-03T15:28:01.736069","emg","1","-11","1","11","0","10","-1","1","2018-07-03T15:28:01.735338"
"2018-07-03T15:28:01.736370","emg","0","4","-2","-1","3","-2","0","-4","2018-07-03T15:28:01.735646"
"2018-07-03T15:28:01.742392","emg","8","1","2","-19","-7","2","-4","1","2018-07-03T15:28:01.741401"
"2018-07-03T15:28:01.742704","emg","-16","-2","4","9","1","4","3","-2","2018-07-03T15:28:01.741890"
"2018-07-03T15:28:01.766617","acc","-1492","-11","1291","gyro","159","-360","-570","quat","13282","-2901","5465","7329","2018-07-03T15:28:01.765537"
"2018-07-03T15:28:01.767662","emg","-1","4","-2","3","3","10","1","2","2018-07-03T15:28:01.766838"
"2018-07-03T15:28:01.768103","emg","-7","0","-1","-1","0","-3","-1","-1","2018-07-03T15:28:01.767168"
"2018-07-03T15:28:01.769254","emg","2","-3","5","1","-7","1","-1","-3","2018-07-03T15:28:01.768390"
"2018-07-03T15:28:01.769603","emg","12","-1","-34","2","-1","-2","1","2","2018-07-03T15:28:01.768785"
"2018-07-03T15:28:01.780930","acc","-1459","29","1299","gyro","177","-270","-524","quat","13340","-2889","5436","7249","2018-07-03T15:28:01.779817"
"2018-07-03T15:28:01.781987","emg","-11","3","32","5","1","8","0","0","2018-07-03T15:28:01.781169"
"2018-07-03T15:28:01.782338","emg","-32","-1","-28","3","-3","-8","-3","-3","2018-07-03T15:28:01.781523"
"2018-07-03T15:28:01.787260","emg","3","-19","21","-3","-2","-3","-2","-1","2018-07-03T15:28:01.786160"
"2018-07-03T15:28:01.787618","emg","5","2","9","-2","1","5","1","-2","2018-07-03T15:28:01.786693"
"2018-07-03T15:28:01.795487","acc","-1376","22","1295","gyro","207","-274","-496","quat","13399","-2869","5405","7172","2018-07-03T15:28:01.794426"
"2018-07-03T15:28:01.796545","emg","8","12","-17","-1","5","11","2","-3","2018-07-03T15:28:01.795706"
"2018-07-03T15:28:01.796937","emg","-31","-8","22","7","3","2","-1","-5","2018-07-03T15:28:01.796051"
"2018-07-03T15:28:01.810066","emg","-13","3","-82","-1","-4","-2","-2","7","2018-07-03T15:28:01.808969"
"2018-07-03T15:28:01.810433","emg","-22","-13","31","-14","-8","-4","-4","-5","2018-07-03T15:28:01.809484"
"2018-07-03T15:28:01.818492","acc","-1331","43","1310","gyro","285","-226","-553","quat","13461","-2841","5384","7082","2018-07-03T15:28:01.817407"
"2018-07-03T15:28:01.819506","emg","-2","-4","-18","-8","4","0","0","3","2018-07-03T15:28:01.818694"
"2018-07-03T15:28:01.819854","emg","7","9","-16","12","2","-4","1","-1","2018-07-03T15:28:01.819042"
"2018-07-03T15:28:01.825070","emg","-4","-3","4","3","-2","0","-1","0","2018-07-03T15:28:01.823957"
"2018-07-03T15:28:01.825433","emg","-2","-5","5","-2","2","3","-1","-5","2018-07-03T15:28:01.824484"
"2018-07-03T15:28:01.840753","acc","-1270","52","1315","gyro","354","-332","-562","quat","13533","-2793","5349","6990","2018-07-03T15:28:01.839650"
"2018-07-03T15:28:01.841827","emg","-74","-6","-14","17","-1","1","-4","-5","2018-07-03T15:28:01.841016"
"2018-07-03T15:28:01.842177","emg","26","10","4","-13","-2","-1","2","-2","2018-07-03T15:28:01.841366"
"2018-07-03T15:28:01.847523","emg","-3","2","11","-7","-2","-1","-2","0","2018-07-03T15:28:01.846303"
"2018-07-03T15:28:01.847932","emg","0","8","-16","6","1","1","0","1","2018-07-03T15:28:01.846895"
"2018-07-03T15:28:01.855762","acc","-1218","36","1292","gyro","269","-404","-622","quat","13610","-2755","5295","6896","2018-07-03T15:28:01.854614"
"2018-07-03T15:28:01.856924","emg","10","2","15","3","0","5","1","-2","2018-07-03T15:28:01.855998"
"2018-07-03T15:28:01.857273","emg","15","-8","-9","-13","-6","-6","-4","-4","2018-07-03T15:28:01.856400"
"2018-07-03T15:28:01.870804","emg","-25","-5","14","-4","3","0","-3","-5","2018-07-03T15:28:01.869721"
"2018-07-03T15:28:01.871168","emg","-4","3","13","-5","0","0","0","-1","2018-07-03T15:28:01.870238"
"2018-07-03T15:28:01.878377","acc","-1154","28","1296","gyro","217","-498","-719","quat","13698","-2722","5216","6793","2018-07-03T15:28:01.877308"
"2018-07-03T15:28:01.879384","emg","38","7","-24","7","-2","1","0","4","2018-07-03T15:28:01.878576"
"2018-07-03T15:28:01.879729","emg","13","1","16","0","-1","-3","-1","2","2018-07-03T15:28:01.878906"
"2018-07-03T15:28:01.885168","emg","20","-2","-17","-14","-2","-4","-3","-2","2018-07-03T15:28:01.884070"
"2018-07-03T15:28:01.885530","emg","59","-6","0","-2","2","2","0","4","2018-07-03T15:28:01.884633"
"2018-07-03T15:28:01.901948","acc","-1088","-22","1236","gyro","157","-682","-894","quat","13807","-2697","5100","6671","2018-07-03T15:28:01.900660"
"2018-07-03T15:28:01.903499","emg","22","4","14","4","-3","2","1","1","2018-07-03T15:28:01.902417"
"2018-07-03T15:28:01.904012","emg","6","-3","-7","-6","-2","-2","-1","-3","2018-07-03T15:28:01.902952"
"2018-07-03T15:28:01.907126","emg","-7","-5","1","1","-2","0","0","-4","2018-07-03T15:28:01.906055"
"2018-07-03T15:28:01.907538","emg","-21","-2","4","3","-3","1","-1","-1","2018-07-03T15:28:01.906543"
"2018-07-03T15:28:01.915709","acc","-1055","-52","1244","gyro","140","-847","-1109","quat","13937","-2675","4951","6521","2018-07-03T15:28:01.914415"
"2018-07-03T15:28:01.917104","emg","-24","-6","6","-1","-1","-2","0","0","2018-07-03T15:28:01.916118"
"2018-07-03T15:28:01.917529","emg","-6","1","-17","-5","0","3","-1","-1","2018-07-03T15:28:01.916553"
"2018-07-03T15:28:01.929237","emg","-4","7","11","-3","-1","-4","-2","-2","2018-07-03T15:28:01.928349"
"2018-07-03T15:28:01.929511","emg","-19","-5","5","9","-3","-2","-1","3","2018-07-03T15:28:01.928914"
"2018-07-03T15:28:01.936804","acc","-1158","-73","1275","gyro","223","-1097","-1312","quat","14090","-2637","4770","6339","2018-07-03T15:28:01.936306"
"2018-07-03T15:28:01.937613","emg","14","9","13","-1","2","2","2","3","2018-07-03T15:28:01.937160"
"2018-07-03T15:28:01.937734","emg","-28","-15","-18","2","3","1","-1","-5","2018-07-03T15:28:01.937379"
"2018-07-03T15:28:01.943989","emg","-9","-2","0","2","-4","-2","-1","-4","2018-07-03T15:28:01.943518"
"2018-07-03T15:28:01.944134","emg","-2","15","-7","-11","-5","-3","-2","-4","2018-07-03T15:28:01.943721"
"2018-07-03T15:28:01.959451","acc","-1221","-84","1306","gyro","374","-1463","-1583","quat","14276","-2564","4542","6116","2018-07-03T15:28:01.959011"
"2018-07-03T15:28:01.959858","emg","-16","-9","6","-8","-8","-5","-1","0","2018-07-03T15:28:01.959532"
"2018-07-03T15:28:01.959948","emg","-5","-8","-1","4","0","-5","-1","2","2018-07-03T15:28:01.959698"
"2018-07-03T15:28:01.965848","emg","32","1","5","-1","0","7","0","2","2018-07-03T15:28:01.965588"
"2018-07-03T15:28:01.965941","emg","-4","28","-1","-1","-2","-4","-1","-2","2018-07-03T15:28:01.965711"
"2018-07-03T15:28:01.975418","acc","-1089","-109","1308","gyro","418","-1886","-1741","quat","14490","-2459","4230","5875","2018-07-03T15:28:01.974448"
"2018-07-03T15:28:01.976286","emg","0","-16","-8","0","1","1","-3","-3","2018-07-03T15:28:01.975590"
"2018-07-03T15:28:01.976627","emg","11","6","-1","0","-4","-7","-2","2","2018-07-03T15:28:01.975877"
"2018-07-03T15:28:01.990067","emg","0","-10","7","-1","0","-2","-2","-1","2018-07-03T15:28:01.988976"
"2018-07-03T15:28:01.990429","emg","-2","30","6","7","3","3","2","4","2018-07-03T15:28:01.989507"
"2018-07-03T15:28:01.998498","acc","-1010","-148","1355","gyro","398","-2267","-1767","quat","14710","-2332","3851","5635","2018-07-03T15:28:01.997428"
"2018-07-03T15:28:01.999490","emg","7","-6","-6","1","4","2","-1","-1","2018-07-03T15:28:01.998723"
"2018-07-03T15:28:01.999847","emg","-14","-36","-9","-13","-12","-9","-7","-5","2018-07-03T15:28:01.999053"
"2018-07-03T15:28:02.005120","emg","-13","4","11","8","8","3","2","1","2018-07-03T15:28:02.004016"
"2018-07-03T15:28:02.005489","emg","-6","-26","-5","-2","1","-1","-3","-3","2018-07-03T15:28:02.004540"
"2018-07-03T15:28:02.020766","acc","-1089","-209","1419","gyro","565","-2669","-1843","quat","14939","-2157","3415","5379","2018-07-03T15:28:02.019743"
"2018-07-03T15:28:02.021763","emg","4","44","11","-6","-1","-2","2","0","2018-07-03T15:28:02.020952"
"2018-07-03T15:28:02.022069","emg","-11","13","3","6","2","0","3","1","2018-07-03T15:28:02.021335"
"2018-07-03T15:28:02.027053","emg","-6","4","-3","-3","-9","-4","-3","-4","2018-07-03T15:28:02.026104"
"2018-07-03T15:28:02.027368","emg","14","-10","-19","-7","-1","-2","-1","0","2018-07-03T15:28:02.026603"
"2018-07-03T15:28:02.035545","acc","-909","-199","1403","gyro","615","-3024","-1822","quat","15160","-1948","2919","5126","2018-07-03T15:28:02.034583"
"2018-07-03T15:28:02.036386","emg","-22","-32","4","2","-2","2","0","-6","2018-07-03T15:28:02.035725"
"2018-07-03T15:28:02.036730","emg","33","31","5","7","4","3","-1","1","2018-07-03T15:28:02.036011"
"2018-07-03T15:28:02.049267","emg","7","-2","2","1","1","1","-2","4","2018-07-03T15:28:02.048436"
"2018-07-03T15:28:02.049567","emg","5","16","1","7","5","3","1","-7","2018-07-03T15:28:02.048846"
"2018-07-03T15:28:02.058342","acc","-918","-109","1488","gyro","693","-3144","-1938","quat","15369","-1719","2403","4847","2018-07-03T15:28:02.057337"
"2018-07-03T15:28:02.059208","emg","-8","6","-12","-13","-10","-6","-6","-11","2018-07-03T15:28:02.058532"
"2018-07-03T15:28:02.059513","emg","-20","-73","-23","-7","0","2","-4","16","2018-07-03T15:28:02.058828"
"2018-07-03T15:28:02.064956","emg","-33","-21","-3","-10","-10","-7","-4","-2","2018-07-03T15:28:02.063934"
"2018-07-03T15:28:02.065269","emg","3","-3","-17","2","-1","-1","0","0","2018-07-03T15:28:02.064413"
"2018-07-03T15:28:02.080670","acc","-976","-412","1590","gyro","1048","-3181","-1891","quat","15556","-1432","1898","4557","2018-07-03T15:28:02.079536"
"2018-07-03T15:28:02.081692","emg","5","-36","15","13","10","-5","2","-2","2018-07-03T15:28:02.080875"
"2018-07-03T15:28:02.082040","emg","20","54","11","2","-2","-4","3","0","2018-07-03T15:28:02.081213"
"2018-07-03T15:28:02.087081","emg","-33","-26","12","7","2","15","1","-2","2018-07-03T15:28:02.086102"
"2018-07-03T15:28:02.087396","emg","10","-3","-13","-8","-4","-1","-1","3","2018-07-03T15:28:02.086574"
"2018-07-03T15:28:02.095563","acc","-801","-358","1605","gyro","1019","-3408","-1539","quat","15704","-1128","1355","4324","2018-07-03T15:28:02.094496"
"2018-07-03T15:28:02.096542","emg","-20","9","6","-6","-4","-1","-2","2","2018-07-03T15:28:02.095790"
"2018-07-03T15:28:02.096972","emg","3","6","22","-1","0","-8","2","-6","2018-07-03T15:28:02.096112"
"2018-07-03T15:28:02.109298","emg","6","-8","-12","-6","0","-8","-7","-3","2018-07-03T15:28:02.108438"
"2018-07-03T15:28:02.109603","emg","1","-19","-13","1","0","2","4","-2","2018-07-03T15:28:02.108914"
"2018-07-03T15:28:02.118310","acc","-552","-147","1682","gyro","1547","-3352","-1650","quat","15834","-732","840","4056","2018-07-03T15:28:02.117297"
"2018-07-03T15:28:02.119289","emg","13","-46","5","0","-3","1","1","9","2018-07-03T15:28:02.118512"
"2018-07-03T15:28:02.119588","emg","-9","7","-19","-3","-1","0","-2","-3","2018-07-03T15:28:02.118860"
"2018-07-03T15:28:02.124932","emg","-5","-41","15","-13","-6","-4","-2","-8","2018-07-03T15:28:02.123913"
"2018-07-03T15:28:02.125247","emg","0","53","52","6","-7","-3","-5","-2","2018-07-03T15:28:02.124383"
"2018-07-03T15:28:02.140840","acc","-425","107","1932","gyro","1634","-3225","-1753","quat","15939","-320","350","3761","2018-07-03T15:28:02.139726"
"2018-07-03T15:28:02.141912","emg","14","-12","-82","-14","7","2","1","6","2018-07-03T15:28:02.141100"
"2018-07-03T15:28:02.142234","emg","-19","57","62","4","-3","3","1","2","2018-07-03T15:28:02.141439"
"2018-07-03T15:28:02.147107","emg","5","-45","-21","5","-1","-1","1","-3","2018-07-03T15:28:02.146117"
"2018-07-03T15:28:02.147424","emg","-23","-46","-23","-16","-5","-4","-4","-4","2018-07-03T15:28:02.146593"
"2018-07-03T15:28:02.155809","acc","-267","308","1896","gyro","1310","-3208","-1655","quat","16010","38","-151","3476","2018-07-03T15:28:02.154740"
"2018-07-03T15:28:02.156833","emg","-4","-53","32","-10","-9","-3","-4","0","2018-07-03T15:28:02.156024"
"2018-07-03T15:28:02.157190","emg","11","31","-44","20","-1","2","-3","-6","2018-07-03T15:28:02.156353"
"2018-07-03T15:28:02.169922","emg","30","27","30","14","8","4","5","3","2018-07-03T15:28:02.168946"
"2018-07-03T15:28:02.170237","emg","-13","11","6","-14","-1","-3","-1","0","2018-07-03T15:28:02.169419"
"2018-07-03T15:28:02.178126","acc","-149","296","2045","gyro","1001","-3326","-1258","quat","16039","345","-683","3254","2018-07-03T15:28:02.177067"
