"2018-04-16T19:41:29.575140","emg","-3","-3","-2","-2","-4","0","-1","-3","2018-04-16T19:41:29.574126"
"2018-04-16T19:41:29.581728","emg","-3","-1","-1","-2","-3","6","0","-2","2018-04-16T19:41:29.580665"
"2018-04-16T19:41:29.582081","emg","-3","-3","0","1","3","0","3","0","2018-04-16T19:41:29.581162"
"2018-04-16T19:41:29.590708","acc","954","-880","-1774","gyro","-7","-30","21","quat","2227","-14891","4515","-4623","2018-04-16T19:41:29.589392"
"2018-04-16T19:41:29.592594","emg","-1","-2","0","-1","-1","-1","-1","0","2018-04-16T19:41:29.591627"
"2018-04-16T19:41:29.592952","emg","-2","1","-1","-2","-2","-3","0","-1","2018-04-16T19:41:29.592154"
"2018-04-16T19:41:29.604432","emg","1","-2","-2","-3","-3","-2","-4","-1","2018-04-16T19:41:29.603325"
"2018-04-16T19:41:29.604743","emg","-2","0","0","0","0","-2","-3","-1","2018-04-16T19:41:29.603893"
"2018-04-16T19:41:29.612444","acc","985","-866","-1781","gyro","-44","-26","3","quat","2218","-14893","4517","-4617","2018-04-16T19:41:29.611505"
"2018-04-16T19:41:29.613370","emg","-4","0","1","-1","0","0","-1","-7","2018-04-16T19:41:29.612654"
"2018-04-16T19:41:29.613673","emg","-3","-3","-1","-2","-2","-4","-9","0","2018-04-16T19:41:29.612952"
"2018-04-16T19:41:29.619167","emg","-1","1","0","-2","1","-1","-1","-7","2018-04-16T19:41:29.618163"
"2018-04-16T19:41:29.619488","emg","2","1","2","2","2","4","4","1","2018-04-16T19:41:29.618730"
"2018-04-16T19:41:29.626277","acc","997","-855","-1777","gyro","-81","-23","-4","quat","2203","-14897","4518","-4612","2018-04-16T19:41:29.625359"
"2018-04-16T19:41:29.634058","emg","4","-2","-1","-2","0","5","-7","-3","2018-04-16T19:41:29.633042"
"2018-04-16T19:41:29.634379","emg","5","4","2","9","7","-17","5","-2","2018-04-16T19:41:29.633543"
"2018-04-16T19:41:29.641426","emg","-6","-5","-7","-13","-20","-21","-34","-7","2018-04-16T19:41:29.640424"
"2018-04-16T19:41:29.641747","emg","-2","1","3","8","18","63","55","22","2018-04-16T19:41:29.640902"
"2018-04-16T19:41:29.649941","acc","978","-833","-1741","gyro","2","-93","49","quat","2207","-14899","4523","-4598","2018-04-16T19:41:29.648932"
"2018-04-16T19:41:29.650976","emg","-3","-11","-18","-19","-24","-61","-34","-10","2018-04-16T19:41:29.650118"
"2018-04-16T19:41:29.651292","emg","1","4","2","-1","12","14","12","20","2018-04-16T19:41:29.650532"
"2018-04-16T19:41:29.664319","emg","6","-6","3","18","15","9","6","-1","2018-04-16T19:41:29.663229"
"2018-04-16T19:41:29.664721","emg","11","14","5","3","-2","6","19","8","2018-04-16T19:41:29.663717"
"2018-04-16T19:41:29.672425","acc","987","-764","-1711","gyro","-84","-249","113","quat","2202","-14909","4536","-4555","2018-04-16T19:41:29.671360"
"2018-04-16T19:41:29.673509","emg","-5","-7","-4","-7","-1","5","-33","-3","2018-04-16T19:41:29.672678"
"2018-04-16T19:41:29.673867","emg","-6","-7","-11","1","-9","-10","-31","-31","2018-04-16T19:41:29.673016"
"2018-04-16T19:41:29.679316","emg","0","2","-6","-17","-15","-37","-19","-8","2018-04-16T19:41:29.678142"
"2018-04-16T19:41:29.679678","emg","-4","7","8","5","4","17","-28","-34","2018-04-16T19:41:29.678702"
"2018-04-16T19:41:29.686880","acc","1108","-676","-1699","gyro","-1129","-347","181","quat","2028","-14943","4606","-4454","2018-04-16T19:41:29.685694"
"2018-04-16T19:41:29.694578","emg","8","-33","-18","-15","-16","19","91","73","2018-04-16T19:41:29.693302"
"2018-04-16T19:41:29.694948","emg","5","15","6","4","-1","-17","-2","-7","2018-04-16T19:41:29.693886"
"2018-04-16T19:41:29.701761","emg","-3","5","7","4","2","6","0","-29","2018-04-16T19:41:29.700659"
"2018-04-16T19:41:29.702186","emg","18","17","2","10","8","7","6","1","2018-04-16T19:41:29.701163"
"2018-04-16T19:41:29.710205","acc","1173","-946","-1738","gyro","-1607","-577","148","quat","1804","-14994","4693","-4282","2018-04-16T19:41:29.709112"
"2018-04-16T19:41:29.711369","emg","-15","-11","-9","-3","-2","-19","8","30","2018-04-16T19:41:29.710525"
"2018-04-16T19:41:29.711725","emg","2","-10","-10","-17","-11","19","-47","-39","2018-04-16T19:41:29.710863"
"2018-04-16T19:41:29.724474","emg","18","15","16","33","24","4","74","71","2018-04-16T19:41:29.723372"
"2018-04-16T19:41:29.724858","emg","-7","-5","-7","-27","-20","-19","-36","-5","2018-04-16T19:41:29.723895"
"2018-04-16T19:41:29.732753","acc","1170","-1379","-2013","gyro","-1067","-1024","278","quat","1737","-15032","4771","-4085","2018-04-16T19:41:29.731670"
"2018-04-16T19:41:29.733796","emg","-16","24","11","13","2","-11","-9","-67","2018-04-16T19:41:29.733008"
"2018-04-16T19:41:29.734161","emg","-44","-38","-15","-20","-23","-13","-42","31","2018-04-16T19:41:29.733351"
"2018-04-16T19:41:29.739555","emg","26","-12","-28","-64","-27","12","-39","-79","2018-04-16T19:41:29.738340"
"2018-04-16T19:41:29.739926","emg","-15","-24","-10","10","-3","-14","83","37","2018-04-16T19:41:29.738964"
"2018-04-16T19:41:29.747188","acc","1076","-1782","-2870","gyro","166","-1527","388","quat","1918","-15064","4809","-3838","2018-04-16T19:41:29.746037"
"2018-04-16T19:41:29.754194","emg","14","24","19","19","14","24","24","0","2018-04-16T19:41:29.752988"
"2018-04-16T19:41:29.754600","emg","4","11","14","5","6","15","-6","3","2018-04-16T19:41:29.753524"
"2018-04-16T19:41:29.761235","emg","-8","-16","-6","20","14","25","52","73","2018-04-16T19:41:29.760312"
"2018-04-16T19:41:29.761592","emg","9","8","-2","-19","-40","-17","-9","9","2018-04-16T19:41:29.760717"
"2018-04-16T19:41:29.770206","acc","-17","-1980","-3515","gyro","1262","-2782","123","quat","2295","-15139","4724","-3419","2018-04-16T19:41:29.769106"
"2018-04-16T19:41:29.771435","emg","-8","-1","-2","-24","1","-8","-36","-33","2018-04-16T19:41:29.770428"
"2018-04-16T19:41:29.771801","emg","-4","26","15","16","2","-17","-5","-31","2018-04-16T19:41:29.770907"
"2018-04-16T19:41:29.783859","emg","-8","-5","2","6","9","20","-18","6","2018-04-16T19:41:29.782835"
"2018-04-16T19:41:29.784217","emg","-9","-12","-9","-5","2","-6","-13","-18","2018-04-16T19:41:29.783302"
"2018-04-16T19:41:29.792987","acc","-758","-1837","-3369","gyro","1235","-4092","700","quat","2751","-15207","4695","-2754","2018-04-16T19:41:29.791872"
"2018-04-16T19:41:29.794860","emg","-4","6","7","18","-9","-3","-33","-24","2018-04-16T19:41:29.793758"
"2018-04-16T19:41:29.795224","emg","11","-10","-8","-3","1","11","44","14","2018-04-16T19:41:29.794292"
"2018-04-16T19:41:29.808047","emg","2","0","-3","-2","7","53","26","22","2018-04-16T19:41:29.806956"
"2018-04-16T19:41:29.808411","emg","-7","0","1","-7","-15","-94","-14","-4","2018-04-16T19:41:29.807464"
"2018-04-16T19:41:29.809492","acc","-1220","-1879","-3354","gyro","1095","-4758","1331","quat","3229","-15224","4741","-1943","2018-04-16T19:41:29.808696"
"2018-04-16T19:41:29.814078","emg","18","19","17","29","16","29","-1","18","2018-04-16T19:41:29.812968"
"2018-04-16T19:41:29.814473","emg","0","-17","-20","-19","-15","-20","1","2","2018-04-16T19:41:29.813476"
"2018-04-16T19:41:29.821740","emg","-15","0","-5","-17","0","-5","-3","-17","2018-04-16T19:41:29.820629"
"2018-04-16T19:41:29.822100","emg","13","22","9","12","13","19","-38","-12","2018-04-16T19:41:29.821134"
"2018-04-16T19:41:29.829335","acc","-1655","-2037","-3330","gyro","429","-5272","1844","quat","3624","-15192","4852","-990","2018-04-16T19:41:29.828258"
"2018-04-16T19:41:29.836872","emg","-20","-38","-17","-28","-23","-2","16","3","2018-04-16T19:41:29.835790"
"2018-04-16T19:41:29.837237","emg","23","13","9","31","10","3","18","9","2018-04-16T19:41:29.836297"
"2018-04-16T19:41:29.844578","emg","-23","-13","1","16","-12","-18","-8","-17","2018-04-16T19:41:29.843451"
"2018-04-16T19:41:29.844939","emg","9","13","-2","-19","17","2","-33","-3","2018-04-16T19:41:29.843977"
"2018-04-16T19:41:29.852825","acc","-1548","-2104","-3197","gyro","32","-5637","2125","quat","3959","-15101","4973","45","2018-04-16T19:41:29.851693"
"2018-04-16T19:41:29.853896","emg","1","19","13","1","-8","-2","8","1","2018-04-16T19:41:29.853091"
"2018-04-16T19:41:29.854257","emg","10","-8","13","4","80","34","28","14","2018-04-16T19:41:29.853434"
"2018-04-16T19:41:29.867917","emg","-20","-23","-10","4","-65","-21","-15","-6","2018-04-16T19:41:29.866668"
"2018-04-16T19:41:29.868348","emg","20","17","15","4","97","32","6","8","2018-04-16T19:41:29.867197"
"2018-04-16T19:41:29.869362","acc","-1044","-2050","-2991","gyro","313","-5704","2136","quat","4319","-14934","5065","1055","2018-04-16T19:41:29.868539"
"2018-04-16T19:41:29.873801","emg","-5","-2","15","21","-15","3","-2","1","2018-04-16T19:41:29.872827"
"2018-04-16T19:41:29.874162","emg","-14","-4","-13","-32","-38","-5","6","-3","2018-04-16T19:41:29.873300"
"2018-04-16T19:41:29.881328","emg","23","3","-10","-17","20","-17","-17","-1","2018-04-16T19:41:29.880376"
"2018-04-16T19:41:29.881692","emg","-40","-54","-30","-28","-86","-19","-11","-16","2018-04-16T19:41:29.880800"
"2018-04-16T19:41:29.889223","acc","-573","-1801","-2627","gyro","1043","-5539","2092","quat","4764","-14677","5141","1976","2018-04-16T19:41:29.888252"
"2018-04-16T19:41:29.896804","emg","12","1","0","-6","-21","1","0","2","2018-04-16T19:41:29.895677"
"2018-04-16T19:41:29.897172","emg","4","6","-9","-6","-53","-12","-5","4","2018-04-16T19:41:29.896218"
"2018-04-16T19:41:29.904547","emg","-31","-8","9","1","23","-4","-5","-9","2018-04-16T19:41:29.903442"
"2018-04-16T19:41:29.904915","emg","-11","-25","-19","36","-127","-5","5","-7","2018-04-16T19:41:29.903967"
"2018-04-16T19:41:29.912760","acc","-175","-1335","-2281","gyro","1972","-5146","2091","quat","5305","-14326","5236","2766","2018-04-16T19:41:29.911673"
"2018-04-16T19:41:29.913794","emg","19","29","4","-10","107","-39","-22","9","2018-04-16T19:41:29.912998"
"2018-04-16T19:41:29.914154","emg","9","-2","-1","22","-32","-6","-2","-4","2018-04-16T19:41:29.913339"
"2018-04-16T19:41:29.927726","emg","9","14","-14","-18","-101","-23","-5","-3","2018-04-16T19:41:29.926629"
"2018-04-16T19:41:29.928112","emg","6","2","5","-25","90","39","12","6","2018-04-16T19:41:29.927142"
"2018-04-16T19:41:29.929357","acc","165","-526","-1795","gyro","2622","-4614","2047","quat","5888","-13904","5357","3426","2018-04-16T19:41:29.928508"
"2018-04-16T19:41:29.934434","emg","-4","-4","0","2","-11","14","4","-2","2018-04-16T19:41:29.933278"
"2018-04-16T19:41:29.934859","emg","6","25","6","7","-19","-17","-2","-1","2018-04-16T19:41:29.933856"
"2018-04-16T19:41:29.941742","emg","-3","-24","-5","-2","24","12","8","10","2018-04-16T19:41:29.940650"
"2018-04-16T19:41:29.942127","emg","-7","-5","1","1","2","-3","-7","-4","2018-04-16T19:41:29.941159"
"2018-04-16T19:41:29.949309","acc","765","556","-1495","gyro","2774","-3744","1987","quat","6411","-13468","5521","3934","2018-04-16T19:41:29.948164"
"2018-04-16T19:41:29.956576","emg","7","22","4","15","17","1","11","-1","2018-04-16T19:41:29.955478"
"2018-04-16T19:41:29.956941","emg","-4","-24","-7","-10","20","13","8","13","2018-04-16T19:41:29.956007"
"2018-04-16T19:41:29.964725","emg","1","4","4","9","10","9","-2","-3","2018-04-16T19:41:29.963406"
"2018-04-16T19:41:29.965227","emg","1","7","3","3","-9","-9","-9","-4","2018-04-16T19:41:29.964001"
"2018-04-16T19:41:29.972670","acc","1911","1570","-1287","gyro","2045","-2537","1809","quat","6737","-13121","5706","4283","2018-04-16T19:41:29.971549"
"2018-04-16T19:41:29.973729","emg","17","35","6","2","-5","-6","-7","-1","2018-04-16T19:41:29.972909"
"2018-04-16T19:41:29.974079","emg","-28","-13","-7","0","-2","14","5","-11","2018-04-16T19:41:29.973297"
"2018-04-16T19:41:29.986736","emg","-28","-75","-35","-7","10","-37","-13","-15","2018-04-16T19:41:29.985872"
"2018-04-16T19:41:29.987050","emg","-4","4","3","6","16","-8","5","0","2018-04-16T19:41:29.986265"
"2018-04-16T19:41:29.988041","acc","3036","2175","-1094","gyro","254","-1146","1233","quat","6785","-12969","5809","4521","2018-04-16T19:41:29.987379"
"2018-04-16T19:41:29.993471","emg","2","12","4","-5","-13","0","2","3","2018-04-16T19:41:29.992699"
"2018-04-16T19:41:29.993806","emg","13","39","17","-3","19","63","-34","-11","2018-04-16T19:41:29.993061"
"2018-04-16T19:41:30.001998","emg","17","25","11","8","5","3","21","26","2018-04-16T19:41:30.000901"
"2018-04-16T19:41:30.002506","emg","-8","-4","-4","0","-16","-48","-23","-21","2018-04-16T19:41:30.001450"
"2018-04-16T19:41:30.009193","acc","2632","1978","-1039","gyro","-1701","-15","27","quat","6543","-13090","5727","4632","2018-04-16T19:41:30.008214"
"2018-04-16T19:41:30.016258","emg","-7","-17","-8","-4","-7","32","0","-4","2018-04-16T19:41:30.015278"
"2018-04-16T19:41:30.016580","emg","4","-3","3","13","20","3","25","5","2018-04-16T19:41:30.015722"
"2018-04-16T19:41:30.024283","emg","-1","-4","1","2","24","29","8","-3","2018-04-16T19:41:30.023238"
"2018-04-16T19:41:30.024602","emg","14","13","4","1","2","17","-19","22","2018-04-16T19:41:30.023767"
"2018-04-16T19:41:30.032346","acc","2325","953","-785","gyro","-3017","889","-1039","quat","6076","-13430","5491","4584","2018-04-16T19:41:30.031301"
"2018-04-16T19:41:30.033492","emg","-11","-24","-11","-3","1","4","12","-6","2018-04-16T19:41:30.032752"
"2018-04-16T19:41:30.033837","emg","-13","-17","-6","-5","7","-9","0","-16","2018-04-16T19:41:30.033068"
"2018-04-16T19:41:30.047580","emg","2","28","11","-3","-9","-13","-21","-22","2018-04-16T19:41:30.046516"
"2018-04-16T19:41:30.048074","emg","12","7","8","2","23","2","21","3","2018-04-16T19:41:30.046979"
"2018-04-16T19:41:30.049189","acc","1851","168","-945","gyro","-2792","2252","-1733","quat","5593","-13838","5240","4265","2018-04-16T19:41:30.048518"
"2018-04-16T19:41:30.054316","emg","-8","-27","-17","-3","-2","1","6","11","2018-04-16T19:41:30.053209"
"2018-04-16T19:41:30.054695","emg","13","5","3","1","-3","-5","0","17","2018-04-16T19:41:30.053726"
"2018-04-16T19:41:30.061018","emg","3","23","8","3","-27","-24","15","-12","2018-04-16T19:41:30.060198"
"2018-04-16T19:41:30.061380","emg","-5","-14","-8","-6","7","21","-33","-1","2018-04-16T19:41:30.060560"
"2018-04-16T19:41:30.069107","acc","1011","-548","-1441","gyro","-1953","3481","-2107","quat","5179","-14238","5033","3682","2018-04-16T19:41:30.068135"
"2018-04-16T19:41:30.077077","emg","6","-9","-3","11","12","5","32","19","2018-04-16T19:41:30.075849"
"2018-04-16T19:41:30.077469","emg","-1","12","4","-1","-3","-21","-3","-7","2018-04-16T19:41:30.076416"
"2018-04-16T19:41:30.084639","emg","-4","-4","-2","-2","-2","-15","-19","-6","2018-04-16T19:41:30.083446"
"2018-04-16T19:41:30.085030","emg","-24","-35","-19","-8","-7","15","-7","-37","2018-04-16T19:41:30.083965"
"2018-04-16T19:41:30.093802","acc","268","-1006","-2227","gyro","-1072","4224","-2227","quat","4853","-14581","4872","2923","2018-04-16T19:41:30.092377"
"2018-04-16T19:41:30.095066","emg","-1","2","8","9","-11","-26","9","0","2018-04-16T19:41:30.094078"
"2018-04-16T19:41:30.095635","emg","5","4","-4","-12","-14","0","4","17","2018-04-16T19:41:30.094596"
"2018-04-16T19:41:30.106976","emg","13","19","12","7","12","13","14","17","2018-04-16T19:41:30.105986"
"2018-04-16T19:41:30.107305","emg","-8","3","3","3","7","26","8","-20","2018-04-16T19:41:30.106515"
"2018-04-16T19:41:30.108442","acc","-591","-1864","-3191","gyro","-839","4608","-2614","quat","4550","-14890","4660","2072","2018-04-16T19:41:30.107703"
"2018-04-16T19:41:30.113969","emg","-13","-12","-6","-4","-13","-57","-34","-12","2018-04-16T19:41:30.112930"
"2018-04-16T19:41:30.114286","emg","7","-3","-2","-1","-10","-14","23","28","2018-04-16T19:41:30.113453"
"2018-04-16T19:41:30.121802","emg","-4","1","1","-1","15","9","-24","-19","2018-04-16T19:41:30.120661"
"2018-04-16T19:41:30.122159","emg","3","16","15","11","16","27","28","33","2018-04-16T19:41:30.121227"
"2018-04-16T19:41:30.129321","acc","-1848","-2818","-3983","gyro","-1039","4496","-3142","quat","4215","-15175","4342","1236","2018-04-16T19:41:30.128174"
"2018-04-16T19:41:30.136982","emg","22","-3","-9","-14","-14","12","10","13","2018-04-16T19:41:30.135824"
"2018-04-16T19:41:30.137413","emg","5","1","1","7","8","-15","-36","-6","2018-04-16T19:41:30.136430"
"2018-04-16T19:41:30.144591","emg","12","1","2","12","-43","11","44","33","2018-04-16T19:41:30.143434"
"2018-04-16T19:41:30.144954","emg","1","10","7","-17","69","-16","-15","0","2018-04-16T19:41:30.144020"
"2018-04-16T19:41:30.152892","acc","-3742","-3020","-4160","gyro","-1637","3322","-1889","quat","3809","-15369","4156","676","2018-04-16T19:41:30.151682"
"2018-04-16T19:41:30.154102","emg","-31","-12","-11","-11","-6","32","-15","-39","2018-04-16T19:41:30.153242"
"2018-04-16T19:41:30.154487","emg","5","0","-6","-6","-3","-11","-27","-15","2018-04-16T19:41:30.153661"
"2018-04-16T19:41:30.167202","emg","25","19","9","4","6","6","20","8","2018-04-16T19:41:30.166024"
"2018-04-16T19:41:30.167575","emg","1","6","-4","10","-34","-8","18","-12","2018-04-16T19:41:30.166630"
"2018-04-16T19:41:30.168841","acc","-4086","-3242","-3779","gyro","-2127","1381","-342","quat","3391","-15477","4138","527","2018-04-16T19:41:30.167989"
"2018-04-16T19:41:30.174672","emg","11","18","11","29","68","3","3","11","2018-04-16T19:41:30.173481"
"2018-04-16T19:41:30.175035","emg","-23","-26","-15","7","-6","1","6","-6","2018-04-16T19:41:30.174062"
"2018-04-16T19:41:30.181871","emg","-17","-12","-8","-3","-4","-4","-29","-11","2018-04-16T19:41:30.180730"
"2018-04-16T19:41:30.182229","emg","0","1","-7","-5","-15","-26","-11","-11","2018-04-16T19:41:30.181322"
"2018-04-16T19:41:30.189307","acc","-3546","-3311","-3550","gyro","-1659","-401","209","quat","3127","-15524","4149","677","2018-04-16T19:41:30.188153"
"2018-04-16T19:41:30.196944","emg","-8","-1","-7","-11","-3","28","6","5","2018-04-16T19:41:30.195755"
"2018-04-16T19:41:30.197346","emg","-7","4","3","11","4","10","11","0","2018-04-16T19:41:30.196300"
"2018-04-16T19:41:30.204569","emg","3","11","2","-13","9","0","5","-2","2018-04-16T19:41:30.203380"
"2018-04-16T19:41:30.204965","emg","-2","-2","-1","9","-33","-2","-3","8","2018-04-16T19:41:30.203926"
"2018-04-16T19:41:30.212980","acc","-3254","-3667","-3177","gyro","-600","-1957","486","quat","3110","-15504","4159","1052","2018-04-16T19:41:30.211734"
"2018-04-16T19:41:30.214489","emg","-8","-9","1","7","12","3","-10","-6","2018-04-16T19:41:30.213497"
"2018-04-16T19:41:30.214911","emg","-5","-2","-6","-15","-49","9","19","-3","2018-04-16T19:41:30.213948"
"2018-04-16T19:41:30.227818","emg","-12","-9","16","46","98","16","-5","-4","2018-04-16T19:41:30.226622"
"2018-04-16T19:41:30.228387","emg","3","2","-3","-6","-51","-13","2","10","2018-04-16T19:41:30.227155"
"2018-04-16T19:41:30.229675","acc","-3004","-3276","-2984","gyro","1160","-2882","1053","quat","3423","-15374","4250","1521","2018-04-16T19:41:30.228908"
"2018-04-16T19:41:30.234166","emg","0","-1","1","-26","-59","-8","-3","0","2018-04-16T19:41:30.232977"
"2018-04-16T19:41:30.234604","emg","6","-5","0","32","-13","-10","0","-9","2018-04-16T19:41:30.233493"
"2018-04-16T19:41:30.241749","emg","4","12","9","-21","54","9","-12","2","2018-04-16T19:41:30.240594"
"2018-04-16T19:41:30.242157","emg","-2","-6","-8","7","-39","-31","-9","0","2018-04-16T19:41:30.241114"
"2018-04-16T19:41:30.249166","acc","-2267","-2544","-3034","gyro","2366","-3378","1621","quat","3973","-15128","4427","2047","2018-04-16T19:41:30.248085"
"2018-04-16T19:41:30.256304","emg","2","-19","-3","18","8","11","1","-1","2018-04-16T19:41:30.255269"
"2018-04-16T19:41:30.256639","emg","0","1","2","-16","14","-6","2","0","2018-04-16T19:41:30.255743"
"2018-04-16T19:41:30.264295","emg","2","4","-4","-17","-85","-16","-14","-9","2018-04-16T19:41:30.263228"
"2018-04-16T19:41:30.264644","emg","-15","-35","-20","-20","-75","-11","-2","-2","2018-04-16T19:41:30.263727"
"2018-04-16T19:41:30.272358","acc","-1328","-1941","-2814","gyro","2608","-3643","1859","quat","4540","-14824","4623","2591","2018-04-16T19:41:30.271242"
"2018-04-16T19:41:30.273490","emg","9","16","6","6","-12","4","-7","-1","2018-04-16T19:41:30.272749"
"2018-04-16T19:41:30.273848","emg","4","16","3","-22","-14","-7","-5","-5","2018-04-16T19:41:30.273078"
"2018-04-16T19:41:30.286780","emg","-21","-27","-5","3","-5","-8","-5","-3","2018-04-16T19:41:30.285879"
"2018-04-16T19:41:30.287274","emg","15","14","9","8","13","-2","1","28","2018-04-16T19:41:30.286252"
"2018-04-16T19:41:30.288453","acc","-411","-1340","-2506","gyro","2519","-3603","1938","quat","5060","-14488","4819","3113","2018-04-16T19:41:30.287780"
"2018-04-16T19:41:30.294530","emg","1","15","3","14","-16","-12","-7","-26","2018-04-16T19:41:30.293401"
"2018-04-16T19:41:30.294892","emg","17","37","19","20","6","2","0","-23","2018-04-16T19:41:30.293935"
"2018-04-16T19:41:30.301529","emg","-26","-71","-36","-13","1","-2","-4","-3","2018-04-16T19:41:30.300507"
"2018-04-16T19:41:30.301863","emg","-10","-15","-23","-35","20","7","4","1","2018-04-16T19:41:30.300963"
"2018-04-16T19:41:30.308573","acc","272","-619","-1954","gyro","2326","-3401","2055","quat","5513","-14133","5027","3609","2018-04-16T19:41:30.307824"
"2018-04-16T19:41:30.316938","emg","12","-4","-4","-51","74","16","8","57","2018-04-16T19:41:30.315855"
"2018-04-16T19:41:30.317268","emg","9","18","19","27","51","9","7","-24","2018-04-16T19:41:30.316347"
"2018-04-16T19:41:30.324162","emg","20","46","20","10","13","5","-1","-6","2018-04-16T19:41:30.323127"
"2018-04-16T19:41:30.324498","emg","-10","-16","3","54","-2","-5","-2","-3","2018-04-16T19:41:30.323602"
"2018-04-16T19:41:30.332332","acc","316","442","-1613","gyro","2091","-2977","1943","quat","5886","-13784","5232","4050","2018-04-16T19:41:30.331245"
"2018-04-16T19:41:30.333463","emg","12","3","-9","-89","28","13","8","14","2018-04-16T19:41:30.332710"
"2018-04-16T19:41:30.333818","emg","-11","-17","-11","-7","-4","4","-6","3","2018-04-16T19:41:30.333041"
"2018-04-16T19:41:30.347791","emg","16","25","2","-10","-33","-10","-6","2","2018-04-16T19:41:30.346611"
"2018-04-16T19:41:30.348390","emg","-13","-6","8","5","44","11","2","-10","2018-04-16T19:41:30.347147"
"2018-04-16T19:41:30.349659","acc","274","1058","-1610","gyro","1269","-2429","1579","quat","6102","-13513","5382","4432","2018-04-16T19:41:30.348899"
"2018-04-16T19:41:30.354502","emg","-11","-7","-3","39","-31","-10","-7","-15","2018-04-16T19:41:30.353265"
"2018-04-16T19:41:30.354892","emg","-1","-8","-1","0","8","5","6","12","2018-04-16T19:41:30.353789"
"2018-04-16T19:41:30.361878","emg","-4","-9","-8","-10","-6","-7","-4","-4","2018-04-16T19:41:30.360596"
"2018-04-16T19:41:30.362266","emg","13","18","10","1","-7","-22","-5","-1","2018-04-16T19:41:30.361170"
"2018-04-16T19:41:30.369244","acc","615","1082","-1362","gyro","-5","-1885","1289","quat","6111","-13357","5458","4783","2018-04-16T19:41:30.368191"
"2018-04-16T19:41:30.377179","emg","-3","-3","-1","4","-24","7","-7","-13","2018-04-16T19:41:30.375901"
"2018-04-16T19:41:30.377571","emg","-16","-20","-14","-21","-13","-34","-8","0","2018-04-16T19:41:30.376502"
"2018-04-16T19:41:30.384145","emg","3","13","1","-2","-36","7","-2","2","2018-04-16T19:41:30.382997"
"2018-04-16T19:41:30.384543","emg","6","-5","-4","-2","-10","-10","2","-3","2018-04-16T19:41:30.383514"
"2018-04-16T19:41:30.392141","acc","1118","943","-989","gyro","-880","-1191","935","quat","5883","-13358","5510","5003","2018-04-16T19:41:30.391217"
"2018-04-16T19:41:30.393346","emg","-6","-10","-6","-5","15","5","-4","0","2018-04-16T19:41:30.392596"
"2018-04-16T19:41:30.393699","emg","-8","-10","-7","-18","-2","11","4","-3","2018-04-16T19:41:30.392931"
"2018-04-16T19:41:30.407327","emg","-4","6","2","5","-18","-9","1","-5","2018-04-16T19:41:30.406181"
"2018-04-16T19:41:30.407878","emg","17","16","11","7","26","3","17","15","2018-04-16T19:41:30.406741"
"2018-04-16T19:41:30.409104","acc","1586","753","-752","gyro","-1149","-313","414","quat","5610","-13455","5514","5052","2018-04-16T19:41:30.408405"
"2018-04-16T19:41:30.414191","emg","-10","-6","-5","3","-23","-3","3","-19","2018-04-16T19:41:30.413129"
"2018-04-16T19:41:30.414602","emg","-4","-6","2","8","-6","24","-32","-1","2018-04-16T19:41:30.413627"
"2018-04-16T19:41:30.421699","emg","9","7","0","-4","13","-19","8","21","2018-04-16T19:41:30.420566"
"2018-04-16T19:41:30.422033","emg","-4","0","-8","-21","9","5","-12","-13","2018-04-16T19:41:30.421043"
"2018-04-16T19:41:30.429008","acc","1489","432","-778","gyro","-1097","701","-75","quat","5328","-13629","5500","4905","2018-04-16T19:41:30.428068"
"2018-04-16T19:41:30.436819","emg","-1","-2","1","18","-7","5","16","12","2018-04-16T19:41:30.435768"
"2018-04-16T19:41:30.437167","emg","-7","-3","-3","-9","8","-11","-9","-16","2018-04-16T19:41:30.436244"
"2018-04-16T19:41:30.444112","emg","-15","-3","0","5","11","27","-7","-21","2018-04-16T19:41:30.443035"
"2018-04-16T19:41:30.444448","emg","20","3","6","4","24","-2","3","13","2018-04-16T19:41:30.443541"
"2018-04-16T19:41:30.452689","acc","1197","4","-1074","gyro","-900","1695","-419","quat","5097","-13810","5488","4651","2018-04-16T19:41:30.451590"
"2018-04-16T19:41:30.453910","emg","3","-1","-3","-2","-37","-8","14","18","2018-04-16T19:41:30.453099"
"2018-04-16T19:41:30.454260","emg","-6","-5","-6","-2","7","15","1","1","2018-04-16T19:41:30.453477"
"2018-04-16T19:41:30.467239","emg","-5","-1","-4","-7","-14","-71","-7","-10","2018-04-16T19:41:30.466003"
"2018-04-16T19:41:30.467809","emg","0","1","-2","-3","9","46","8","-5","2018-04-16T19:41:30.466566"
"2018-04-16T19:41:30.469149","acc","864","-291","-1405","gyro","-791","2524","-725","quat","4847","-14034","5475","4244","2018-04-16T19:41:30.468357"
"2018-04-16T19:41:30.473549","emg","2","2","5","9","12","-1","13","-2","2018-04-16T19:41:30.472690"
"2018-04-16T19:41:30.473950","emg","4","-4","-2","-9","-4","18","-5","15","2018-04-16T19:41:30.473058"
"2018-04-16T19:41:30.489262","emg","-1","-5","-1","6","2","-37","-8","2","2018-04-16T19:41:30.488391"
"2018-04-16T19:41:30.489755","emg","-1","3","3","4","14","33","42","-9","2018-04-16T19:41:30.488765"
"2018-04-16T19:41:30.490955","acc","510","-476","-1771","gyro","-940","3248","-1151","quat","4545","-14305","5422","3709","2018-04-16T19:41:30.490257"
"2018-04-16T19:41:30.496876","emg","-28","-8","-10","-4","-48","-121","-87","-39","2018-04-16T19:41:30.495728"
"2018-04-16T19:41:30.497211","emg","-2","-5","1","4","14","37","19","12","2018-04-16T19:41:30.496241"
"2018-04-16T19:41:30.503592","emg","16","11","7","6","8","37","1","20","2018-04-16T19:41:30.502703"
"2018-04-16T19:41:30.503947","emg","-2","-1","-3","-3","-7","-13","3","5","2018-04-16T19:41:30.503111"
"2018-04-16T19:41:30.512668","acc","90","-954","-2133","gyro","-1669","3614","-1526","quat","4123","-14617","5286","3136","2018-04-16T19:41:30.511584"
"2018-04-16T19:41:30.513843","emg","-7","-6","-4","-4","2","60","-5","-13","2018-04-16T19:41:30.513090"
"2018-04-16T19:41:30.514192","emg","2","-3","-2","4","-3","8","40","8","2018-04-16T19:41:30.513421"
"2018-04-16T19:41:30.527581","emg","-14","-6","-6","-5","-9","-47","-71","-22","2018-04-16T19:41:30.526508"
"2018-04-16T19:41:30.528093","emg","0","3","3","-5","-3","39","40","2","2018-04-16T19:41:30.527012"
"2018-04-16T19:41:30.529230","acc","-260","-1330","-2721","gyro","-1824","3932","-1679","quat","3659","-14917","5122","2510","2018-04-16T19:41:30.528574"
"2018-04-16T19:41:30.534177","emg","7","2","1","20","13","-8","-35","9","2018-04-16T19:41:30.533112"
"2018-04-16T19:41:30.534561","emg","-13","-7","-6","-15","10","-25","-28","-37","2018-04-16T19:41:30.533586"
"2018-04-16T19:41:30.541281","emg","1","-2","0","2","19","47","10","15","2018-04-16T19:41:30.540331"
"2018-04-16T19:41:30.541592","emg","14","10","3","-3","-6","-4","21","-4","2018-04-16T19:41:30.540797"
"2018-04-16T19:41:30.549200","acc","-880","-1509","-3200","gyro","-1543","4103","-1592","quat","3226","-15161","4975","1853","2018-04-16T19:41:30.548069"
"2018-04-16T19:41:30.557039","emg","4","3","5","7","4","23","11","-9","2018-04-16T19:41:30.555897"
"2018-04-16T19:41:30.557394","emg","12","8","3","2","-7","-50","10","23","2018-04-16T19:41:30.556475"
"2018-04-16T19:41:30.563854","emg","-6","-1","-1","-4","-13","-36","-28","-12","2018-04-16T19:41:30.562877"
"2018-04-16T19:41:30.564212","emg","-21","-10","-5","-2","0","3","-15","-8","2018-04-16T19:41:30.563356"
"2018-04-16T19:41:30.572841","acc","-1681","-1454","-3532","gyro","-1133","3855","-1077","quat","2861","-15317","4906","1251","2018-04-16T19:41:30.571676"
"2018-04-16T19:41:30.573929","emg","-4","-1","0","1","10","-7","-12","-12","2018-04-16T19:41:30.573102"
"2018-04-16T19:41:30.574275","emg","6","-1","6","2","-2","6","6","10","2018-04-16T19:41:30.573491"
"2018-04-16T19:41:30.587534","emg","0","4","2","5","5","8","35","8","2018-04-16T19:41:30.586357"
"2018-04-16T19:41:30.587895","emg","4","-17","-5","2","8","9","-15","11","2018-04-16T19:41:30.586959"
"2018-04-16T19:41:30.589122","acc","-2281","-1605","-3534","gyro","-673","3036","-751","quat","2618","-15405","4865","787","2018-04-16T19:41:30.588278"
"2018-04-16T19:41:30.594471","emg","2","-1","1","-3","-10","6","14","31","2018-04-16T19:41:30.593269"
"2018-04-16T19:41:30.594839","emg","-10","-9","-5","-9","-1","25","-6","-33","2018-04-16T19:41:30.593861"
"2018-04-16T19:41:30.601844","emg","-6","0","-3","0","-16","-59","-2","-17","2018-04-16T19:41:30.600608"
"2018-04-16T19:41:30.602315","emg","-7","4","0","-3","1","26","-46","-22","2018-04-16T19:41:30.601188"
"2018-04-16T19:41:30.608914","acc","-2776","-1593","-3316","gyro","-332","1771","-605","quat","2502","-15450","4814","536","2018-04-16T19:41:30.607947"
"2018-04-16T19:41:30.617032","emg","6","1","-4","-5","-15","-38","28","9","2018-04-16T19:41:30.615848"
"2018-04-16T19:41:30.617415","emg","22","8","-4","-3","-2","-1","10","34","2018-04-16T19:41:30.616368"
"2018-04-16T19:41:30.624561","emg","1","-3","-2","2","5","39","10","-4","2018-04-16T19:41:30.623367"
"2018-04-16T19:41:30.624989","emg","5","4","-1","3","3","-23","-6","11","2018-04-16T19:41:30.623918"
"2018-04-16T19:41:30.632974","acc","-3104","-1618","-3127","gyro","-366","579","-288","quat","2412","-15478","4779","450","2018-04-16T19:41:30.631717"
"2018-04-16T19:41:30.634291","emg","-10","-5","-6","-3","-12","17","18","-3","2018-04-16T19:41:30.633432"
"2018-04-16T19:41:30.634744","emg","-7","-2","-4","0","-11","-15","-20","-22","2018-04-16T19:41:30.633813"
"2018-04-16T19:41:30.647557","emg","3","1","-3","2","13","27","24","6","2018-04-16T19:41:30.646510"
"2018-04-16T19:41:30.647921","emg","-12","0","-11","-8","-22","-61","-23","-12","2018-04-16T19:41:30.647016"
"2018-04-16T19:41:30.649151","acc","-3159","-1822","-2949","gyro","-896","-447","281","quat","2282","-15484","4811","579","2018-04-16T19:41:30.648318"
"2018-04-16T19:41:30.654315","emg","-9","-4","-2","-6","-2","7","-7","-4","2018-04-16T19:41:30.653193"
"2018-04-16T19:41:30.654736","emg","-5","-2","-3","18","20","-12","5","6","2018-04-16T19:41:30.653771"
"2018-04-16T19:41:30.661351","emg","0","4","-1","-2","7","28","13","2","2018-04-16T19:41:30.660416"
"2018-04-16T19:41:30.661710","emg","-6","1","-1","2","-9","-13","-9","4","2018-04-16T19:41:30.660890"
"2018-04-16T19:41:30.669387","acc","-2707","-1987","-2662","gyro","-1023","-1276","688","quat","2351","-15426","4888","1023","2018-04-16T19:41:30.668237"
"2018-04-16T19:41:30.676714","emg","2","6","2","-6","10","-5","1","-7","2018-04-16T19:41:30.675703"
"2018-04-16T19:41:30.677027","emg","-4","1","1","-1","-3","12","6","10","2018-04-16T19:41:30.676226"
"2018-04-16T19:41:30.684404","emg","-5","-3","-2","-1","-7","-1","-1","-1","2018-04-16T19:41:30.683295"
"2018-04-16T19:41:30.684758","emg","-1","2","0","-10","9","1","-12","-2","2018-04-16T19:41:30.683853"
"2018-04-16T19:41:30.692842","acc","-2055","-1854","-2450","gyro","-442","-1745","728","quat","2398","-15369","4958","1380","2018-04-16T19:41:30.691711"
"2018-04-16T19:41:30.693921","emg","-1","-5","-2","2","-39","-5","-1","-8","2018-04-16T19:41:30.693094"
"2018-04-16T19:41:30.694271","emg","-3","-2","3","4","-3","-6","-3","3","2018-04-16T19:41:30.693484"
"2018-04-16T19:41:30.707882","emg","0","-4","-5","-35","-56","8","-2","2","2018-04-16T19:41:30.706770"
"2018-04-16T19:41:30.708243","emg","4","1","7","-9","-13","3","0","1","2018-04-16T19:41:30.707338"
"2018-04-16T19:41:30.709468","acc","-1401","-1548","-2337","gyro","449","-1935","673","quat","2592","-15284","5023","1704","2018-04-16T19:41:30.708636"
"2018-04-16T19:41:30.713474","emg","8","3","6","4","38","24","8","2","2018-04-16T19:41:30.712697"
"2018-04-16T19:41:30.713783","emg","-2","-5","-1","-12","-15","-10","-6","3","2018-04-16T19:41:30.713087"
"2018-04-16T19:41:30.721496","emg","0","-5","0","13","-23","1","-7","-6","2018-04-16T19:41:30.720352"
"2018-04-16T19:41:30.721825","emg","-3","-4","0","0","-27","0","-2","-4","2018-04-16T19:41:30.720880"
"2018-04-16T19:41:30.729130","acc","-839","-1162","-2216","gyro","1155","-1972","674","quat","2891","-15171","5097","1984","2018-04-16T19:41:30.728116"
"2018-04-16T19:41:30.736933","emg","-2","-4","1","-2","0","0","-5","-4","2018-04-16T19:41:30.735803"
"2018-04-16T19:41:30.737287","emg","3","-2","2","6","9","-5","-3","0","2018-04-16T19:41:30.736383"
"2018-04-16T19:41:30.744043","emg","9","4","4","8","31","14","5","2","2018-04-16T19:41:30.742951"
"2018-04-16T19:41:30.744401","emg","-2","-5","2","18","-3","-10","-3","-4","2018-04-16T19:41:30.743496"
"2018-04-16T19:41:30.752236","acc","-366","-773","-2049","gyro","1494","-1883","662","quat","3228","-15043","5176","2220","2018-04-16T19:41:30.751106"
"2018-04-16T19:41:30.768427","emg","9","3","-3","-3","23","9","2","5","2018-04-16T19:41:30.767296"
"2018-04-16T19:41:30.768791","emg","-7","-8","-2","1","-8","-5","-4","-3","2018-04-16T19:41:30.767883"
"2018-04-16T19:41:30.769897","emg","-1","-3","-3","-4","5","6","1","-2","2018-04-16T19:41:30.769077"
"2018-04-16T19:41:30.770243","emg","-3","-5","-1","-6","-27","-13","-5","-2","2018-04-16T19:41:30.769462"
"2018-04-16T19:41:30.771563","acc","-95","-472","-1914","gyro","1508","-1617","514","quat","3544","-14922","5237","2403","2018-04-16T19:41:30.770743"
"2018-04-16T19:41:30.774177","emg","4","4","2","15","18","4","0","-1","2018-04-16T19:41:30.773047"
"2018-04-16T19:41:30.774564","emg","0","-1","-4","-7","-15","-4","-1","-1","2018-04-16T19:41:30.773623"
"2018-04-16T19:41:30.790082","emg","0","-4","-3","11","8","2","-2","-2","2018-04-16T19:41:30.788975"
"2018-04-16T19:41:30.790496","emg","-2","1","-3","-1","5","-2","-5","-2","2018-04-16T19:41:30.789528"
"2018-04-16T19:41:30.791710","acc","-72","-291","-1807","gyro","1156","-1262","284","quat","3747","-14847","5266","2498","2018-04-16T19:41:30.790876"
"2018-04-16T19:41:30.796360","emg","-7","-8","-6","11","-57","-9","-4","-7","2018-04-16T19:41:30.795320"
"2018-04-16T19:41:30.796717","emg","5","3","3","-3","26","5","3","2","2018-04-16T19:41:30.795841"
"2018-04-16T19:41:30.805295","emg","2","2","0","0","22","5","2","4","2018-04-16T19:41:30.804046"
"2018-04-16T19:41:30.805671","emg","-1","1","1","9","13","-5","-2","-2","2018-04-16T19:41:30.804717"
"2018-04-16T19:41:30.811996","acc","-57","-255","-1687","gyro","586","-886","73","quat","3841","-14814","5260","2559","2018-04-16T19:41:30.810902"
"2018-04-16T19:41:30.819593","emg","-2","-6","-5","-8","-38","-1","-3","-5","2018-04-16T19:41:30.818356"
"2018-04-16T19:41:30.819968","emg","1","-4","-2","12","15","-20","-4","-2","2018-04-16T19:41:30.818998"
"2018-04-16T19:41:30.827762","emg","-1","-2","-1","-6","-9","-2","-1","-2","2018-04-16T19:41:30.826594"
"2018-04-16T19:41:30.828121","emg","0","0","-2","-4","6","4","3","1","2018-04-16T19:41:30.827185"
"2018-04-16T19:41:30.829325","acc","69","-267","-1543","gyro","194","-427","-120","quat","3855","-14823","5229","2553","2018-04-16T19:41:30.828529"
"2018-04-16T19:41:30.834434","emg","1","-1","-2","-9","7","8","1","-1","2018-04-16T19:41:30.833303"
"2018-04-16T19:41:30.834866","emg","-4","-1","-4","3","-22","-5","-2","-3","2018-04-16T19:41:30.833888"
"2018-04-16T19:41:30.850084","emg","1","1","-3","-14","15","4","1","-1","2018-04-16T19:41:30.848944"
"2018-04-16T19:41:30.850490","emg","3","2","1","-5","11","-1","-1","2","2018-04-16T19:41:30.849540"
"2018-04-16T19:41:30.851752","acc","176","-313","-1399","gyro","128","126","-345","quat","3841","-14862","5179","2448","2018-04-16T19:41:30.850901"
"2018-04-16T19:41:30.856234","emg","0","1","2","5","8","-1","0","2","2018-04-16T19:41:30.855276"
"2018-04-16T19:41:30.856594","emg","0","2","-3","-19","-3","0","2","0","2018-04-16T19:41:30.855793"
"2018-04-16T19:41:30.864707","emg","-3","-1","1","5","-6","7","0","-1","2018-04-16T19:41:30.863413"
"2018-04-16T19:41:30.865082","emg","1","1","-1","-2","8","2","1","-4","2018-04-16T19:41:30.864002"
"2018-04-16T19:41:30.872149","acc","159","-327","-1335","gyro","317","744","-647","quat","3834","-14922","5110","2225","2018-04-16T19:41:30.871025"
"2018-04-16T19:41:30.879580","emg","-2","-2","0","-6","9","-2","-2","-2","2018-04-16T19:41:30.878391"
"2018-04-16T19:41:30.879938","emg","0","1","0","2","-15","-2","-1","-1","2018-04-16T19:41:30.879010"
"2018-04-16T19:41:30.887338","emg","-3","-2","-4","-7","2","-6","1","1","2018-04-16T19:41:30.886200"
"2018-04-16T19:41:30.887703","emg","1","-2","-3","0","2","3","-1","-2","2018-04-16T19:41:30.886792"
"2018-04-16T19:41:30.888937","acc","70","-318","-1335","gyro","647","1331","-954","quat","3855","-14993","5023","1887","2018-04-16T19:41:30.888103"
"2018-04-16T19:41:30.894416","emg","2","2","2","6","24","12","8","3","2018-04-16T19:41:30.893305"
"2018-04-16T19:41:30.894834","emg","-5","-2","-2","-10","-10","-13","-10","-2","2018-04-16T19:41:30.893873"
"2018-04-16T19:41:30.910234","emg","-4","-2","1","5","-6","1","-3","-8","2018-04-16T19:41:30.909074"
"2018-04-16T19:41:30.910665","emg","6","4","6","15","74","23","6","5","2018-04-16T19:41:30.909663"
"2018-04-16T19:41:30.911926","acc","-50","-287","-1376","gyro","931","1832","-1170","quat","3921","-15053","4927","1480","2018-04-16T19:41:30.911058"
"2018-04-16T19:41:30.917080","emg","-1","1","-2","-4","-11","-12","-4","0","2018-04-16T19:41:30.915842"
"2018-04-16T19:41:30.917447","emg","-5","-4","-6","-4","-28","13","2","-5","2018-04-16T19:41:30.916437"
"2018-04-16T19:41:30.924147","emg","1","1","1","-1","-19","-10","2","9","2018-04-16T19:41:30.923027"
"2018-04-16T19:41:30.924505","emg","5","2","3","-17","17","14","0","6","2018-04-16T19:41:30.923607"
"2018-04-16T19:41:30.932264","acc","-177","-192","-1501","gyro","969","2283","-1304","quat","3965","-15115","4825","995","2018-04-16T19:41:30.931085"
"2018-04-16T19:41:30.939566","emg","-1","-3","-3","-6","-17","-1","-3","-6","2018-04-16T19:41:30.938377"
"2018-04-16T19:41:30.939934","emg","-6","-5","-4","-2","5","3","-5","-4","2018-04-16T19:41:30.939012"
"2018-04-16T19:41:30.948050","emg","-7","-4","-6","-5","-5","-30","-27","-26","2018-04-16T19:41:30.946949"
"2018-04-16T19:41:30.948416","emg","3","1","0","-1","-7","6","15","8","2018-04-16T19:41:30.947504"
"2018-04-16T19:41:30.949638","acc","-292","-217","-1783","gyro","678","2763","-1358","quat","3930","-15181","4727","447","2018-04-16T19:41:30.948808"
"2018-04-16T19:41:30.954128","emg","3","1","4","8","0","2","16","18","2018-04-16T19:41:30.953034"
"2018-04-16T19:41:30.954515","emg","-3","0","2","-2","8","4","-3","0","2018-04-16T19:41:30.953594"
"2018-04-16T19:41:30.969486","emg","3","-2","-2","12","1","-14","-3","1","2018-04-16T19:41:30.968402"
"2018-04-16T19:41:30.969857","emg","2","1","-3","-18","29","26","0","2","2018-04-16T19:41:30.968965"
"2018-04-16T19:41:30.971207","acc","-409","-376","-1960","gyro","113","3115","-1427","quat","3782","-15256","4624","-128","2018-04-16T19:41:30.970299"
"2018-04-16T19:41:30.977076","emg","-7","-4","-7","-14","-26","-84","-23","-18","2018-04-16T19:41:30.975933"
"2018-04-16T19:41:30.977433","emg","-5","-4","1","8","-2","-1","0","-12","2018-04-16T19:41:30.976500"
"2018-04-16T19:41:30.984591","emg","-4","-2","-5","-7","-6","30","-1","-4","2018-04-16T19:41:30.983431"
"2018-04-16T19:41:30.984947","emg","0","-1","6","19","-24","-4","2","5","2018-04-16T19:41:30.984017"
"2018-04-16T19:41:30.992274","acc","-464","-685","-2047","gyro","-542","3388","-1465","quat","3513","-15335","4519","-714","2018-04-16T19:41:30.991120"
"2018-04-16T19:41:30.999537","emg","-1","1","-7","-13","39","27","6","4","2018-04-16T19:41:30.998330"
"2018-04-16T19:41:30.999904","emg","-1","-5","-3","-5","-29","-39","-12","-15","2018-04-16T19:41:30.998975"
"2018-04-16T19:41:31.007814","emg","4","-2","4","10","47","22","5","15","2018-04-16T19:41:31.006666"
"2018-04-16T19:41:31.008181","emg","-5","-1","-4","-3","-27","-1","4","-11","2018-04-16T19:41:31.007269"
"2018-04-16T19:41:31.009544","acc","-371","-841","-2097","gyro","-605","3568","-1283","quat","3224","-15380","4445","-1318","2018-04-16T19:41:31.008689"
"2018-04-16T19:41:31.014344","emg","-1","-1","5","5","-33","-60","-16","1","2018-04-16T19:41:31.013256"
"2018-04-16T19:41:31.014769","emg","-3","3","-1","-8","9","11","6","1","2018-04-16T19:41:31.013770"
"2018-04-16T19:41:31.029706","emg","5","6","-2","-5","8","17","14","12","2018-04-16T19:41:31.028605"
"2018-04-16T19:41:31.030070","emg","-2","-3","-1","5","-13","0","-5","-13","2018-04-16T19:41:31.029103"
"2018-04-16T19:41:31.031162","acc","-198","-1037","-2285","gyro","-227","3549","-1102","quat","2999","-15378","4387","-1928","2018-04-16T19:41:31.030331"
"2018-04-16T19:41:31.036901","emg","-6","-6","0","3","8","49","-5","-4","2018-04-16T19:41:31.035763"
"2018-04-16T19:41:31.037267","emg","3","3","3","20","14","-58","-4","5","2018-04-16T19:41:31.036312"
"2018-04-16T19:41:31.044519","emg","-3","-3","2","0","-33","-24","-3","-13","2018-04-16T19:41:31.043372"
"2018-04-16T19:41:31.044879","emg","1","1","4","-12","-5","9","-2","4","2018-04-16T19:41:31.043911"
"2018-04-16T19:41:31.052172","acc","52","-1156","-2412","gyro","-268","3337","-695","quat","2783","-15339","4385","-2487","2018-04-16T19:41:31.051060"
"2018-04-16T19:41:31.059509","emg","-4","-4","-22","-1","-6","27","8","1","2018-04-16T19:41:31.058317"
"2018-04-16T19:41:31.059872","emg","2","-11","-6","-8","-48","-13","0","36","2018-04-16T19:41:31.058905"
"2018-04-16T19:41:31.067761","emg","7","5","8","9","65","35","15","-28","2018-04-16T19:41:31.066647"
"2018-04-16T19:41:31.068265","emg","-10","-6","-2","3","-19","-21","-16","-16","2018-04-16T19:41:31.067169"
"2018-04-16T19:41:31.069384","acc","286","-1216","-2439","gyro","-126","3075","-585","quat","2604","-15278","4384","-3003","2018-04-16T19:41:31.068580"
"2018-04-16T19:41:31.074495","emg","3","-2","3","-17","-7","-2","3","2","2018-04-16T19:41:31.073341"
"2018-04-16T19:41:31.074864","emg","4","6","6","-8","34","68","14","11","2018-04-16T19:41:31.073876"
"2018-04-16T19:41:31.090245","emg","-2","-3","-3","-1","-6","-25","-2","21","2018-04-16T19:41:31.089153"
"2018-04-16T19:41:31.090652","emg","-9","-7","-4","-4","-6","-6","-18","12","2018-04-16T19:41:31.089658"
"2018-04-16T19:41:31.091747","acc","501","-1299","-2430","gyro","-269","2733","-585","quat","2415","-15217","4374","-3453","2018-04-16T19:41:31.090945"
"2018-04-16T19:41:31.096178","emg","-11","0","0","7","2","19","-8","-59","2018-04-16T19:41:31.095280"
"2018-04-16T19:41:31.096535","emg","20","17","12","20","94","42","30","21","2018-04-16T19:41:31.095687"
"2018-04-16T19:41:31.104518","emg","0","3","4","-18","10","-17","0","22","2018-04-16T19:41:31.103390"
"2018-04-16T19:41:31.104882","emg","-6","-5","-10","-4","-7","12","0","-2","2018-04-16T19:41:31.103910"
"2018-04-16T19:41:31.111776","acc","766","-1426","-2269","gyro","-234","2347","-521","quat","2254","-15153","4359","-3842","2018-04-16T19:41:31.110703"
"2018-04-16T19:41:31.118968","emg","3","-5","-5","-2","-29","-16","-8","-16","2018-04-16T19:41:31.117816"
"2018-04-16T19:41:31.119363","emg","-6","-3","-6","-7","-27","14","-11","-5","2018-04-16T19:41:31.118298"
"2018-04-16T19:41:31.127759","emg","2","-6","-5","7","14","12","14","8","2018-04-16T19:41:31.126548"
"2018-04-16T19:41:31.128328","emg","-2","-7","-15","-25","-85","-55","1","7","2018-04-16T19:41:31.127092"
"2018-04-16T19:41:31.129754","acc","849","-1293","-2205","gyro","-108","1940","-500","quat","2131","-15093","4330","-4166","2018-04-16T19:41:31.128879"
"2018-04-16T19:41:31.134025","emg","0","1","4","-8","41","-2","-3","16","2018-04-16T19:41:31.132861"
"2018-04-16T19:41:31.134527","emg","-9","-1","-3","-1","0","28","-12","-31","2018-04-16T19:41:31.133368"
"2018-04-16T19:41:31.150200","emg","-1","-3","-3","-8","-21","-31","-16","-6","2018-04-16T19:41:31.148914"
"2018-04-16T19:41:31.150841","emg","-6","-2","-4","-2","-20","25","6","2","2018-04-16T19:41:31.149546"
"2018-04-16T19:41:31.152153","acc","826","-1102","-2058","gyro","-407","1640","-467","quat","1971","-15047","4311","-4423","2018-04-16T19:41:31.151373"
"2018-04-16T19:41:31.156204","emg","3","7","9","9","-10","-42","-3","7","2018-04-16T19:41:31.155292"
"2018-04-16T19:41:31.156561","emg","-2","-4","-5","-12","-16","-21","-3","-8","2018-04-16T19:41:31.155720"
"2018-04-16T19:41:31.164254","emg","0","0","-2","6","-24","0","3","27","2018-04-16T19:41:31.163289"
"2018-04-16T19:41:31.164580","emg","1","1","3","12","26","9","2","-36","2018-04-16T19:41:31.163772"
"2018-04-16T19:41:31.172193","acc","950","-1168","-1913","gyro","-735","1464","-452","quat","1793","-15005","4313","-4633","2018-04-16T19:41:31.171075"
"2018-04-16T19:41:31.179514","emg","-2","2","2","6","0","10","1","-5","2018-04-16T19:41:31.178360"
"2018-04-16T19:41:31.179873","emg","0","-2","0","5","2","-20","-7","8","2018-04-16T19:41:31.178961"
"2018-04-16T19:41:31.187759","emg","0","0","7","-16","13","39","3","-5","2018-04-16T19:41:31.186626"
"2018-04-16T19:41:31.188121","emg","-3","-7","-33","-16","-26","-82","-16","-2","2018-04-16T19:41:31.187216"
"2018-04-16T19:41:31.189365","acc","1043","-1235","-1734","gyro","-259","1400","-431","quat","1706","-14948","4292","-4865","2018-04-16T19:41:31.188527"
"2018-04-16T19:41:31.194534","emg","2","-3","6","-4","13","33","3","15","2018-04-16T19:41:31.193330"
"2018-04-16T19:41:31.194904","emg","0","0","-1","0","-32","-24","-1","-18","2018-04-16T19:41:31.193918"
"2018-04-16T19:41:31.210000","emg","1","5","1","8","-6","14","7","4","2018-04-16T19:41:31.208882"
"2018-04-16T19:41:31.210515","emg","0","1","8","15","33","23","1","0","2018-04-16T19:41:31.209453"
"2018-04-16T19:41:31.211885","acc","901","-1380","-1688","gyro","476","1293","-394","quat","1760","-14877","4244","-5099","2018-04-16T19:41:31.210984"
"2018-04-16T19:41:31.216273","emg","-4","-4","-10","-21","-22","-17","-3","7","2018-04-16T19:41:31.215356"
"2018-04-16T19:41:31.216630","emg","0","-2","-6","-3","-34","2","2","5","2018-04-16T19:41:31.215820"
"2018-04-16T19:41:31.223648","emg","-4","-3","4","13","-30","-8","-8","-18","2018-04-16T19:41:31.222835"
"2018-04-16T19:41:31.223951","emg","2","3","8","17","9","-2","3","8","2018-04-16T19:41:31.223246"
"2018-04-16T19:41:31.232240","acc","748","-1187","-1794","gyro","1105","967","-337","quat","1917","-14816","4165","-5283","2018-04-16T19:41:31.231214"
"2018-04-16T19:41:31.239118","emg","1","1","4","5","39","13","2","5","2018-04-16T19:41:31.238049"
"2018-04-16T19:41:31.239429","emg","1","-1","2","-2","7","-18","-3","1","2018-04-16T19:41:31.238608"
"2018-04-16T19:41:31.247103","emg","-3","-1","-3","-6","10","4","-3","-7","2018-04-16T19:41:31.246025"
"2018-04-16T19:41:31.247446","emg","-4","0","0","-5","-18","-25","-6","-1","2018-04-16T19:41:31.246574"
"2018-04-16T19:41:31.248476","acc","840","-905","-1829","gyro","1179","748","-319","quat","2065","-14769","4071","-5429","2018-04-16T19:41:31.247744"
"2018-04-16T19:41:31.254145","emg","0","-1","-3","3","-15","-2","0","4","2018-04-16T19:41:31.253054"
"2018-04-16T19:41:31.254490","emg","-3","-1","-6","-13","5","11","-2","-4","2018-04-16T19:41:31.253619"
"2018-04-16T19:41:31.270018","emg","-2","-2","-2","1","-2","-10","-2","-3","2018-04-16T19:41:31.268876"
"2018-04-16T19:41:31.270382","emg","1","1","4","14","1","8","4","3","2018-04-16T19:41:31.269442"
"2018-04-16T19:41:31.271703","acc","950","-805","-1834","gyro","834","722","-283","quat","2146","-14730","3999","-5558","2018-04-16T19:41:31.270799"
"2018-04-16T19:41:31.276966","emg","-4","-5","0","22","-19","-2","-2","-4","2018-04-16T19:41:31.275878"
"2018-04-16T19:41:31.277325","emg","0","2","2","4","11","-7","-2","0","2018-04-16T19:41:31.276399"
"2018-04-16T19:41:31.284612","emg","-3","-2","-6","-1","-29","-14","-3","-4","2018-04-16T19:41:31.283437"
"2018-04-16T19:41:31.284968","emg","0","0","0","-24","-7","8","-1","1","2018-04-16T19:41:31.284038"
"2018-04-16T19:41:31.292303","acc","920","-798","-1831","gyro","366","658","-225","quat","2160","-14703","3963","-5649","2018-04-16T19:41:31.291111"
"2018-04-16T19:41:31.298868","emg","0","-2","-1","3","-7","3","1","-2","2018-04-16T19:41:31.297851"
"2018-04-16T19:41:31.299230","emg","-3","-3","-8","-11","-28","-5","-3","-2","2018-04-16T19:41:31.298310"
"2018-04-16T19:41:31.306914","emg","0","-1","2","8","1","4","-1","-1","2018-04-16T19:41:31.306016"
"2018-04-16T19:41:31.307269","emg","-3","-2","2","-3","-19","-4","-3","-5","2018-04-16T19:41:31.306498"
"2018-04-16T19:41:31.308642","acc","938","-936","-1810","gyro","-41","323","-73","quat","2143","-14695","3971","-5669","2018-04-16T19:41:31.307799"
"2018-04-16T19:41:31.314011","emg","5","7","8","3","82","12","6","6","2018-04-16T19:41:31.312909"
"2018-04-16T19:41:31.314370","emg","-2","0","1","4","-2","4","0","1","2018-04-16T19:41:31.313462"
"2018-04-16T19:41:31.330056","emg","1","1","2","-1","60","4","2","-2","2018-04-16T19:41:31.328921"
"2018-04-16T19:41:31.330478","emg","2","1","-1","2","17","0","-1","3","2018-04-16T19:41:31.329502"
"2018-04-16T19:41:31.331678","acc","1009","-1033","-1848","gyro","-101","-50","89","quat","2148","-14702","4001","-5628","2018-04-16T19:41:31.330844"
"2018-04-16T19:41:31.336966","emg","-2","-2","-3","2","-28","-5","-2","-2","2018-04-16T19:41:31.335832"
"2018-04-16T19:41:31.337340","emg","0","0","2","3","8","4","0","-1","2018-04-16T19:41:31.336419"
"2018-04-16T19:41:31.344578","emg","-4","-5","-4","-4","-27","-11","-5","-4","2018-04-16T19:41:31.343448"
"2018-04-16T19:41:31.344936","emg","-2","1","0","-3","4","0","-1","-1","2018-04-16T19:41:31.344005"
"2018-04-16T19:41:31.352319","acc","991","-1078","-1849","gyro","-54","-398","41","quat","2176","-14730","4013","-5535","2018-04-16T19:41:31.351139"
"2018-04-16T19:41:31.359588","emg","0","0","-6","-26","-3","9","1","2","2018-04-16T19:41:31.358394"
"2018-04-16T19:41:31.359948","emg","-1","-1","-1","4","-2","-2","-1","-2","2018-04-16T19:41:31.359015"
"2018-04-16T19:41:31.366951","emg","-2","-1","-2","-19","1","-3","-2","-1","2018-04-16T19:41:31.366062"
"2018-04-16T19:41:31.367298","emg","2","0","3","26","18","4","1","0","2018-04-16T19:41:31.366545"
"2018-04-16T19:41:31.368680","acc","1076","-894","-1661","gyro","50","-505","-10","quat","2208","-14761","3999","-5448","2018-04-16T19:41:31.367845"
"2018-04-16T19:41:31.374524","emg","-2","-3","3","10","-6","0","0","0","2018-04-16T19:41:31.373331"
"2018-04-16T19:41:31.374901","emg","1","-3","0","1","2","-1","-1","1","2018-04-16T19:41:31.373927"
"2018-04-16T19:41:31.390051","emg","1","0","3","13","42","4","0","1","2018-04-16T19:41:31.388935"
"2018-04-16T19:41:31.390428","emg","-2","-2","4","13","-24","-3","-1","-3","2018-04-16T19:41:31.389496"
"2018-04-16T19:41:31.391701","acc","1088","-796","-1518","gyro","197","-281","-95","quat","2243","-14778","3964","-5414","2018-04-16T19:41:31.390858"
"2018-04-16T19:41:31.396998","emg","-1","1","1","1","7","5","0","-1","2018-04-16T19:41:31.395844"
"2018-04-16T19:41:31.397353","emg","-1","-1","-1","-1","-6","-1","0","-1","2018-04-16T19:41:31.396432"
"2018-04-16T19:41:31.412908","acc","1021","-793","-1511","gyro","233","1","-185","quat","2269","-14782","3921","-5424","2018-04-16T19:41:31.411720"
"2018-04-16T19:41:31.414135","emg","-5","-5","-9","1","-67","-10","-5","-5","2018-04-16T19:41:31.413259"
"2018-04-16T19:41:31.414539","emg","0","-2","-2","-5","-4","-1","1","0","2018-04-16T19:41:31.413684"
"2018-04-16T19:41:31.419625","emg","0","0","-1","6","-26","-5","-1","0","2018-04-16T19:41:31.418423"
"2018-04-16T19:41:31.419984","emg","3","3","3","-9","64","12","3","4","2018-04-16T19:41:31.419053"
"2018-04-16T19:41:31.427990","acc","1019","-882","-1547","gyro","259","180","-210","quat","2295","-14775","3880","-5462","2018-04-16T19:41:31.426836"
"2018-04-16T19:41:31.429046","emg","1","0","-3","-4","-17","-2","-1","-2","2018-04-16T19:41:31.428214"
"2018-04-16T19:41:31.429399","emg","0","-1","0","-6","15","2","-1","0","2018-04-16T19:41:31.428604"
"2018-04-16T19:41:31.434641","emg","-1","1","-3","-5","-8","1","0","0","2018-04-16T19:41:31.433455"
"2018-04-16T19:41:31.435009","emg","-2","-3","0","9","-19","-3","-1","-1","2018-04-16T19:41:31.434037"
"2018-04-16T19:41:31.450195","acc","1018","-998","-1615","gyro","451","273","-158","quat","2358","-14754","3841","-5518","2018-04-16T19:41:31.449070"
"2018-04-16T19:41:31.451322","emg","-1","0","-2","-3","12","2","-2","0","2018-04-16T19:41:31.450483"
"2018-04-16T19:41:31.451745","emg","-2","-3","-2","18","-21","-6","-3","-2","2018-04-16T19:41:31.450877"
"2018-04-16T19:41:31.456789","emg","0","0","-2","-1","-6","-3","-1","-1","2018-04-16T19:41:31.455592"
"2018-04-16T19:41:31.457152","emg","-2","-1","-2","0","-14","-4","-3","-2","2018-04-16T19:41:31.456174"
"2018-04-16T19:41:31.471922","acc","989","-1096","-1722","gyro","631","224","-58","quat","2463","-14729","3809","-5562","2018-04-16T19:41:31.470974"
"2018-04-16T19:41:31.472974","emg","-2","-2","-1","-2","0","-2","0","-2","2018-04-16T19:41:31.472163"
"2018-04-16T19:41:31.473319","emg","-3","0","-2","-8","-9","-2","-3","-2","2018-04-16T19:41:31.472514"
"2018-04-16T19:41:31.479365","emg","-1","2","-1","0","4","1","-1","-1","2018-04-16T19:41:31.478199"
"2018-04-16T19:41:31.479730","emg","-1","-1","-2","-3","-8","-2","-1","-1","2018-04-16T19:41:31.478822"
"2018-04-16T19:41:31.487942","acc","983","-1034","-1816","gyro","544","74","53","quat","2556","-14714","3795","-5568","2018-04-16T19:41:31.486822"
"2018-04-16T19:41:31.489015","emg","1","-2","-2","-2","-11","-4","-1","-1","2018-04-16T19:41:31.488186"
"2018-04-16T19:41:31.489363","emg","0","0","-2","-8","15","4","1","1","2018-04-16T19:41:31.488579"
"2018-04-16T19:41:31.494424","emg","-2","-4","-2","-5","-8","-2","-1","0","2018-04-16T19:41:31.493216"
"2018-04-16T19:41:31.494864","emg","-2","-4","-5","-9","2","-1","-1","-1","2018-04-16T19:41:31.493801"
"2018-04-16T19:41:31.510193","acc","1007","-918","-1805","gyro","120","-58","113","quat","2580","-14719","3809","-5536","2018-04-16T19:41:31.509058"
"2018-04-16T19:41:31.511314","emg","-2","-2","0","0","-3","0","-2","-2","2018-04-16T19:41:31.510481"
"2018-04-16T19:41:31.511664","emg","1","-1","-1","-13","11","2","1","0","2018-04-16T19:41:31.510875"
"2018-04-16T19:41:31.516660","emg","0","-2","-2","-1","-3","-2","-3","0","2018-04-16T19:41:31.515558"
"2018-04-16T19:41:31.517021","emg","-3","-1","-1","2","-12","-3","-1","-3","2018-04-16T19:41:31.516118"
"2018-04-16T19:41:31.532806","acc","1037","-881","-1728","gyro","-459","-114","152","quat","2515","-14738","3861","-5477","2018-04-16T19:41:31.531672"
"2018-04-16T19:41:31.533881","emg","-2","-2","-3","-8","3","0","-2","-2","2018-04-16T19:41:31.533055"
"2018-04-16T19:41:31.534228","emg","0","-1","0","1","-4","1","-1","-1","2018-04-16T19:41:31.533446"
"2018-04-16T19:41:31.539505","emg","-1","-2","1","1","8","0","-2","0","2018-04-16T19:41:31.538324"
"2018-04-16T19:41:31.539867","emg","0","-1","-1","-9","-19","-4","0","-3","2018-04-16T19:41:31.538928"
"2018-04-16T19:41:31.547630","acc","1066","-906","-1654","gyro","-734","-82","141","quat","2408","-14759","3927","-5421","2018-04-16T19:41:31.546499"
"2018-04-16T19:41:31.548712","emg","-2","-1","-2","2","-8","-3","-2","-2","2018-04-16T19:41:31.547876"
"2018-04-16T19:41:31.549067","emg","-4","-3","-5","-9","-32","-9","-3","-4","2018-04-16T19:41:31.548269"
"2018-04-16T19:41:31.553733","emg","1","-1","-2","1","-5","-2","-2","-2","2018-04-16T19:41:31.552819"
"2018-04-16T19:41:31.554084","emg","-1","-3","0","1","-7","-1","-3","-2","2018-04-16T19:41:31.553273"
"2018-04-16T19:41:31.570159","acc","1085","-959","-1672","gyro","-641","-51","107","quat","2319","-14775","3984","-5376","2018-04-16T19:41:31.569020"
"2018-04-16T19:41:31.571311","emg","-3","-4","-2","5","-33","-7","-2","-4","2018-04-16T19:41:31.570404"
"2018-04-16T19:41:31.571662","emg","1","-1","1","-7","17","3","-1","0","2018-04-16T19:41:31.570847"
"2018-04-16T19:41:31.577041","emg","0","-1","-4","-12","-3","-1","-1","1","2018-04-16T19:41:31.575931"
